lead1,lead2,time
-0.0308933177948483,-0.02475474682506297,0.0
-0.038105717618207094,-0.02417112085464954,0.005
-0.040511298475756956,-0.024304888281989043,0.01
-0.03444460765000475,-0.02625398516562835,0.015
-0.035954700425718265,-0.023409120574677124,0.02
-0.04311519024537155,-0.01921631623534907,0.025
-0.0443406949317769,-0.024537564486805732,0.03
-0.03874652309410813,-0.029503176123418344,0.035
-0.036858130479656005,-0.01997251070477621,0.04
-0.04442964186680659,-0.012323815826271303,0.045
-0.04446003290042432,-0.01976001462241076,0.05
-0.027211877081599986,-0.023296361960946466,0.055
-0.019551489990398175,-0.016897060767545845,0.06
-0.032853151750374,-0.018717972237390218,0.065
-0.038715524487680265,-0.027252244196613505,0.07
-0.033209948417776324,-0.029762127103993022,0.075
-0.03744434772543594,-0.029717706859279793,0.08
-0.04242175810096924,-0.02718787699905764,0.085
-0.038967049585432484,-0.01786345923106424,0.09
-0.042279813374615914,-0.013267393283204204,0.095
-0.04352856377052786,-0.019573714639458777,0.1
-0.02861870151077489,-0.024832468948954408,0.105
-0.02341222362136985,-0.024981358134768466,0.11
-0.03716676065065999,-0.02407158027899868,0.115
-0.039960998892656294,-0.02008518301200677,0.12
-0.032903691144902505,-0.017112475849629005,0.125
-0.03752928167061562,-0.022769170682809647,0.13
-0.040509077369564585,-0.029399510783035508,0.135
-0.033799208776827044,-0.026233657829203033,0.14
-0.036462480427638735,-0.01780019287543892,0.145
-0.0414262438163016,-0.014325973166869573,0.15
-0.02996347769126888,-0.01740869482322921,0.155
-0.019393900727181577,-0.01974453305902269,0.16
-0.025477998745629102,-0.01661913874402856,0.165
-0.032995310722814294,-0.013618297374155978,0.17
-0.034580025589218924,-0.014820010966808022,0.175
-0.03584297592766055,-0.01731141017422757,0.18
-0.03176244651837001,-0.02268741699534172,0.185
-0.024880240361380982,-0.029329251171250088,0.19
-0.03054415309601589,-0.02619709296911268,0.195
-0.042313723922733276,-0.017660002442785823,0.2
-0.038254021264529536,-0.01855220343048514,0.205
-0.023336012027011674,-0.02071778815799939,0.21
-0.020565201334448346,-0.013061043707015819,0.215
-0.028255769863128413,-0.008688444579985091,0.22
-0.028339552994037103,-0.01298603485025726,0.225
-0.02470838220320832,-0.014835632652841579,0.23
-0.030628108461600138,-0.01704768096427842,0.235
-0.03586831896836785,-0.0214413928273729,0.24
-0.030066581463553326,-0.015517011645918802,0.245
-0.029046034845489063,-0.007258803990278201,0.25
-0.03759370282633177,-0.013816450099352656,0.255
-0.032813335221187644,-0.02031574414896878,0.26
-0.014549478476326375,-0.013070821234134255,0.265
-0.011307265855104052,-0.010753186288779786,0.27
-0.02272659695832473,-0.018609656343544306,0.275
-0.02276657344844219,-0.017068280642776306,0.28
-0.014101573761677805,-0.009390535825379926,0.285
-0.016344404770562374,-0.014538438980795843,0.29
-0.02243601169370654,-0.024546145998253506,0.295
-0.019760014622410848,-0.01976001462241067,0.3
-0.020169045573432808,-0.004988508258219087,0.305
-0.027738737152020264,0.00030336623447606704,0.31
-0.021890238877221285,-0.008404774821047567,0.315
-0.003630242421755749,-0.018044316136641498,0.32
-0.002537929592228099,-0.01933964868767663,0.325
-0.01755905320538809,-0.01589635875035636,0.33
-0.01709263203009471,-0.010779750664702787,0.335
-0.0025276189207457957,-0.0036296617120553957,0.34
0.0010517856593510373,0.00014140293229612675,0.345
0.0005650375084384322,-0.0003024061184986027,0.35
0.010579510188137332,0.005601901613398563,0.355
0.01407550938250337,0.017077895253888746,0.36
0.005704933191987341,0.018682078046931744,0.365
0.013454403737760457,0.010363592202396575,0.37
0.039337444530610076,0.006156883533794318,0.375
0.05049024646767548,0.002512336169193511,0.38
0.04481156962684972,-0.015052518767320475,0.385
0.051180941461814344,-0.039408219164833495,0.39
0.06776932482581659,-0.05047336365662842,0.395
0.07083311057675101,-0.04941116821597889,0.4
0.06652421344351388,-0.05182842468893586,0.405
0.06964138629897973,-0.053970611956695544,0.41
0.06575376297048939,-0.04210950158049709,0.415
0.05128919390655687,-0.027768147267111135,0.42
0.05434004021162975,-0.029640021933616235,0.425
0.07057733274245026,-0.03416019677275935,0.43
0.059800243866544735,-0.02350729874602793,0.435
0.02791080087410998,-0.014671494206227627,0.44
0.013103399181986998,-0.021312026630919106,0.445
0.006779385070558903,-0.023843454197752727,0.45
-0.010964785223752419,-0.015970283327563412,0.455
-0.017559098768112517,-0.0163641868102517,0.46
-0.008636666829550612,-0.019414018034165995,0.465
-0.016915646256985984,-0.009124884148960823,0.47
-0.03409456019417865,-0.0037236251742450684,0.475
-0.023161338696206568,-0.01564958561676104,0.48
0.001147595899717339,-0.019622176331908714,0.485
0.0012258145690569329,-0.009538482709183758,0.49
-0.014129985741026266,-0.009428874553312015,0.495
-0.01597577519521269,-0.015761167529806698,0.5
-0.0062352400057581235,-0.013408882754083648,0.505
-0.004113629319154769,-0.017447978831089315,0.51
-0.008384361293646836,-0.027218969468122297,0.515
-0.0019852381774168224,-0.004752843813490846,0.52
0.011801077897708099,0.052506910298959826,0.525
0.02021600907828933,0.08945238798088526,0.53
0.044649076282059705,0.06883542521716017,0.535
0.10633065664647894,0.02047770239908555,0.54
0.17592266791041947,-0.0063893474071770266,0.545
0.2321801718133271,-0.02964002193361625,0.55
0.29263774678849697,-0.11518355215964908,0.555
0.33015273993625427,-0.24009817870535216,0.56
0.2874531031756623,-0.2927139238259313,0.565
0.1884673598773708,-0.2536547003411744,0.57
0.09736257725940786,-0.2032283341510131,0.575
0.019047067354508652,-0.14851868158976117,0.58
-0.04927578162797865,-0.05681272329340735,0.585
-0.07482358854105119,0.012327688342004713,0.59
-0.060635522065377825,0.011712175771442382,0.595
-0.04958619812779507,0.0016516857815753047,0.6
-0.05488257996162702,0.015681136023623032,0.605
-0.062430838045706566,0.016188073955293283,0.61
-0.06421788581448362,0.00550772269856829,0.615
-0.05965178940694969,0.009393705675423088,0.62
-0.055232374361997134,0.012554792086600191,0.625
-0.053658835011915304,0.008919154099452029,0.63
-0.049827490215768835,0.013481165437356486,0.635
-0.05331290015751451,0.017328838617304658,0.64
-0.06730680419032263,0.013988535605759552,0.645
-0.062140250080980154,0.014322480113467718,0.65
-0.03552685593197063,0.013860371668858219,0.655
-0.03110816547321037,0.009495994408493927,0.66
-0.05010354697903401,0.00972182375112819,0.665
-0.05246201637264554,0.008163952262292827,0.67
-0.04446003290042435,0.004940003655602647,0.675
-0.05064101574227528,0.011797840107416014,0.68
-0.05358524173882266,0.013111956374772367,0.685
-0.0450812041563427,0.0009931511217839996,0.69
-0.047882008593450404,0.003952567454075189,0.695
-0.055049138968163866,0.0180416276616618,0.7
-0.040851261442286485,0.012971369785608254,0.705
-0.01742948779476125,0.006136673465775619,0.71
-0.00976257640421527,0.017449877324315112,0.715
-0.011184696930051707,0.024578470652578496,0.72
-0.0038649724636811637,0.027052350741820684,0.725
0.010767545661130395,0.0403914449435921,0.73
0.02147965722496121,0.04442996908062853,0.735
0.027647245817214443,0.03481891697790967,0.74
0.0342228009994575,0.03877392538467466,0.745
0.03650638258481013,0.047591879714379455,0.75
0.033854901866785435,0.040180834785646276,0.755
0.04141132529140055,0.030680322333735445,0.76
0.05757460009130843,0.024200343478102262,0.765
0.056633490446115965,0.011573267332209246,0.77
0.03891048099313211,0.0075427126563410085,0.775
0.03083828128585667,0.016917643452219328,0.78
0.02875099720056395,0.01935168327351822,0.785
0.010831337212684469,0.013048057094785948,0.79
-0.010789297404415204,0.00463446341927029,0.795
-0.014820010966808123,-0.009880007311205372,0.8
-0.0163146156681854,-0.01808693026416793,0.805
-0.03403421340646322,-0.010540970497083638,0.81
-0.04912447572720025,-0.008834679722548611,0.815
-0.041911938774397466,-0.02042700958195164,0.82
-0.034366811987689934,-0.024158457604772036,0.825
-0.049178735995250786,-0.016699605885448755,0.83
-0.06370139675528945,-0.011177739487956822,0.835
-0.0572385081320426,-0.009870414251961427,0.84
-0.054678576983030705,-0.012510153106556739,0.845
-0.06950053788080443,-0.01945956512243099,0.85
-0.07370110483207841,-0.024872022360037375,0.855
-0.064213980216679,-0.023510698707897855,0.86
-0.06932999828074134,-0.014467562849376723,0.865
-0.07910489317507527,-0.005211090075227363,0.87
-0.06632156901042084,-0.006535549770811081,0.875
-0.050613993524476396,-0.010500301267706541,0.88
-0.05690346164510699,-0.00590036385731174,0.885
-0.06469074080273854,-0.00519738214824823,0.89
-0.05634411411956158,-0.010696461698083743,0.895
-0.049174113774552705,-0.004004716559358812,0.9
-0.051438126624148386,0.005250947510805459,0.905
-0.048454239139298624,-0.0012622241108228651,0.91
-0.04024537678376801,-0.004237374232718146,0.915
-0.04257703792408714,0.006905649304688558,0.92
-0.049400036556027094,0.009880007311205459,0.925
-0.03814165466670491,0.004542449772567598,0.93
-0.0152747781258583,0.006979250096355872,0.935
-0.009156108094758593,0.009953373311984714,0.94
-0.016261653248099292,0.008826705940066367,0.945
-0.011744831065508622,0.010688159520601977,0.95
-0.0011938018839976045,0.010551387271300826,0.955
0.0007285805430669257,0.009435687578293238,0.96
0.0071873506804784,0.01661521862219779,0.965
0.021729352476813003,0.02367434466513956,0.97
0.0240107127941097,0.026728973183016848,0.975
0.019878015595743388,0.035177376360991316,0.98
0.033282838544291274,0.038611662540677834,0.985
0.05327024281255185,0.029085000848956457,0.99
0.05487083222048153,0.024619355121627825,0.995
0.04411749125728959,0.024901793013411857,1.0
0.038187853340053805,0.015318226729060509,1.005
0.035548536103398067,0.009445645425971776,1.01
0.02765266594249678,0.012068825839228014,1.015
0.01768265077024156,0.000142866696912744,1.02
0.014731231592338424,-0.018124002309300932,1.025
0.012608250221423145,-0.014868250055319391,1.03
-0.002442231160682735,-0.0043983821015786346,1.035
-0.01627768080285488,-0.010297783871603341,1.04
-0.006596565158976048,-0.017179885991577094,1.045
0.004940003655602717,-0.009880007311205443,1.05
-0.009092011486536515,-0.005225840492527666,1.055
-0.023378289184944587,-0.015804765159121093,1.06
-0.016037560380981374,-0.02472592871412117,1.065
-0.014844353978096638,-0.018783346406491697,1.07
-0.02911386766979209,-0.015384954970256782,1.075
-0.0313895511530221,-0.023597291890431683,1.08
-0.02672220667061868,-0.01953711612119877,1.085
-0.0373535751077349,-0.0023149124277955374,1.09
-0.043652069943494,-0.004036926170141734,1.095
-0.02750075208791509,-0.017789441411848243,1.1
-0.014615850078911039,-0.014202882851485698,1.105
-0.01848596141761474,-0.010131423484708413,1.11
-0.01731167377915018,-0.020380119174545797,1.115
-0.005646698028140873,-0.01598246492013994,1.12
0.0031975689851826894,0.007417737412532883,1.125
0.016778167040391617,0.025443548770998272,1.13
0.0474769003191797,0.04120228728657056,1.135
0.08220199379049774,0.05412786736312704,1.14
0.11130658123799962,0.044992253719795136,1.145
0.1566893179722162,0.022634972848241612,1.15
0.23330726352218875,-0.009702934418320465,1.155
0.3089070691153079,-0.080143420544691,1.16
0.33715679717102065,-0.16725816587401537,1.165
0.30970513288715557,-0.20662950593172322,1.17
0.24700018278013525,-0.19266014256850544,1.175
0.16750796163546156,-0.15865474920927872,1.18
0.09406199257013151,-0.11033004480069537,1.185
0.05219782653733328,-0.05551052103013188,1.19
0.03767029964852506,-0.014707738845676308,1.195
0.025214635237955946,0.01247656546934757,1.2
0.014794814499691469,0.028380920028135276,1.205
0.022373710195066565,0.02785947379216276,1.21
0.036371657796937414,0.02481505452791777,1.215
0.03413435183357425,0.029108602235956037,1.22
0.022554807879703445,0.026192890667527245,1.225
0.019885364231384595,0.014099974016034772,1.23
0.021655407148430207,0.0067601932976023675,1.235
0.015591050983824385,0.002618232754058172,1.24
0.005473211902861934,-0.004492360259483944,1.245
-0.001105770417775839,-0.009434124160233938,1.25
-0.008031668532910543,-0.009609024516166544,1.255
-0.01816304127396837,-0.009506265491923531,1.26
-0.022589296172380754,-0.013768363387636106,1.265
-0.018669491550933552,-0.02167448167358975,1.27
-0.021102338004298688,-0.02513282202334967,1.275
-0.034265205988649655,-0.023226646537633993,1.28
-0.03916542787790872,-0.025272943691176032,1.285
-0.031371786209248985,-0.029406049756921154,1.29
-0.03225689187516732,-0.02895987607635066,1.295
-0.04446003290042441,-0.02964002193361623,1.3
-0.049587305301566006,-0.02952823750708732,1.305
-0.05004635687578758,-0.018988592766309622,1.31
-0.05417375998687811,-0.009944732210511271,1.315
-0.04884045106428014,-0.015150975323795885,1.32
-0.036565464048809275,-0.020195852889816356,1.325
-0.040941082704934774,-0.01597095512825544,1.33
-0.052552953393866106,-0.01379900109561025,1.335
-0.047404014923067415,-0.014785386181835313,1.34
-0.04184399488622367,-0.01152433581980185,1.345
-0.051768283379516694,-0.008493064939442792,1.35
-0.053870818054049766,-0.010006252480685793,1.355
-0.04220251933271436,-0.008938141239630213,1.36
-0.04102923577059776,0.0012801863289304116,1.365
-0.04472311720675653,0.014278033568186917,1.37
-0.031454035397120134,0.015496801720223845,1.375
-0.01512161160681211,0.00663192935455101,1.38
-0.014126972379463856,0.007867088016534947,1.385
-0.01514093649547884,0.020167645252692882,1.39
-0.007634290211080046,0.024710629590868012,1.395
-0.0011225203786118414,0.02374694283959811,1.4
0.002885262557661353,0.028444563672379703,1.405
0.011042658998524578,0.029170569631349466,1.41
0.016482727090370127,0.024302589360370743,1.415
0.009243783751941284,0.02849478916454321,1.42
-2.2368937977632784e-17,0.03458002558921899,1.425
0.008249821147126192,0.028757247526545356,1.43
0.028322549132575325,0.023751048110134818,1.435
0.03514743300614378,0.02505497788999242,1.44
0.027271278933562418,0.0142723102889811,1.445
0.02542679819944397,-0.005540475313077849,1.45
0.029593108094120708,-0.010926271856349567,1.455
0.026773551972697724,-0.00772971770987442,1.46
0.025134041172239736,-0.017710096613473923,1.465
0.029918742439803907,-0.0298680093986769,1.47
0.02356383002856821,-0.023426508842281396,1.475
0.009354315125902075,-0.014793841389399995,1.48
0.01505395086013489,-0.024009957593689693,1.485
0.03222283191744083,-0.030722049347818983,1.49
0.025978666240262762,-0.02045046513933957,1.495
0.00473113961261726,-0.01796590931719331,1.5
0.0013349573283177746,-0.028372438839967328,1.505
0.005820760005281208,-0.0264412498941658,1.51
-0.005781413046468849,-0.0212020494718486,1.515
-0.015299726337018841,-0.033693962472862084,1.52
-0.00694512559212826,-0.03883100530013659,1.525
-0.009640948677493325,-0.020015176742192817,1.53
-0.03226231161698928,-0.0101246289910083,1.535
-0.0344717858362184,-0.020950395305091688,1.54
-0.010195914348725446,-0.024339821341962387,1.545
-0.004940003655602661,-0.014820010966808104,1.55
-0.024060665452120017,-0.009754200630778611,1.555
-0.027932254974235123,-0.009899971998622033,1.56
-0.015805694716644135,-0.005882704922776927,1.565
-0.015523083717583899,0.0023435020382374387,1.57
-0.02021005914192992,0.004153695467846443,1.575
-0.012710215028915086,-0.0036614164568125854,1.58
-0.0034879862525105405,-0.0009864893248360434,1.585
0.0010294933258710357,0.018485409473952746,1.59
0.01286559461238422,0.024103438697978787,1.595
0.03144002337468552,0.011541430468359141,1.6
0.045152951407258335,0.015863927706536343,1.605
0.058256583738288445,0.03662474349702735,1.61
0.08402928395247808,0.05014259255048028,1.615
0.12111461518062618,0.0633033448509203,1.62
0.1569862439125329,0.07031931102964041,1.625
0.19137708833870284,0.04720006841389364,1.63
0.23696997671732992,0.011143067415606426,1.635
0.2905992352791339,-0.026068535695341927,1.64
0.32738059586558704,-0.0946469251631218,1.645
0.3288221430515206,-0.17303325243934478,1.65
0.2896417272319957,-0.19534119090530502,1.655
0.21082381185899704,-0.16884169599306773,1.66
0.11780908449680065,-0.1383666440284318,1.665
0.05177462388857582,-0.09918344194870624,1.67
0.019760014622410844,-0.04940003655602704,1.675
-0.0010093999273066744,-0.01957574406724248,1.68
-0.013497624661250473,-0.014209114228425638,1.685
-0.010682573507182012,-0.014804320402513286,1.69
-0.008484839986196056,-0.01358226045409578,1.695
-0.01871334869144729,-0.007612959229349225,1.7
-0.025389994882624542,-0.003990291777537786,1.705
-0.01896409425206254,-0.010991030374783786,1.71
-0.01512003761851971,-0.014505649103267593,1.715
-0.024564585007305982,-0.009854859068128552,1.72
-0.03650168111332804,-0.01380346849161444,1.725
-0.03943819869146573,-0.01980596660308401,1.73
-0.036200732381409514,-0.015782194672537324,1.735
-0.03354694376697824,-0.016784127000325798,1.74
-0.03433543925628163,-0.020050932147827574,1.745
-0.042018765973429816,-0.0077685900105318876,1.75
-0.05294398477299803,0.0008110764342236417,1.755
-0.05156878355206143,-0.00824657794035875,1.76
-0.038144730419198254,-0.010094387592187318,1.765
-0.035943481210158584,-0.004312433766764511,1.77
-0.04718861602185967,-0.011562826493982119,1.775
-0.04803875487833939,-0.017083327711313184,1.78
-0.03854956928998643,-0.008721344304939245,1.785
-0.037654820355730874,-0.006888249930516019,1.79
-0.04084308153789042,-0.013299169775555123,1.795
-0.03952002924482165,-0.009880007311205353,1.8
-0.04240732837759888,0.002505915026228104,1.805
-0.04310722508693338,0.014967202920497658,1.81
-0.02725462052888557,0.02011209752944427,1.815
-0.012693555862820576,0.0117326464462672,1.82
-0.018027733478675922,0.004029830726200014,1.825
-0.025018951600391033,0.011746936168352557,1.83
-0.02096960250968747,0.021774234179651235,1.835
-0.020354551717928486,0.02521230104038844,1.84
-0.024440224439892706,0.02884823819896101,1.845
-0.024196889743737595,0.02900696368028013,1.85
-0.03045068460341094,0.030104214614472137,1.855
-0.04584147578884669,0.04585520446804387,1.86
-0.04683559365082947,0.05745731529860598,1.865
-0.030584206074246955,0.04554550784332597,1.87
-0.024599648737209247,0.03413038046638613,1.875
-0.03294736941957414,0.035043255149605296,1.88
-0.03170624867119473,0.027268506631249866,1.885
-0.019136145427903133,0.017023318540898655,1.89
-0.015138388844339103,0.021808832031103217,1.895
-0.01937298231214932,0.023072483341230337,1.9
-0.017768449634885455,0.009404788538573005,1.905
-0.01484960276665756,-0.0007137884641335672,1.91
-0.0187297864030644,-0.005884141682351175,1.915
-0.017370272904997645,-0.015838377358511978,1.92
-0.004940003655602648,-0.019760014622410737,1.925
-0.00015809950224400296,-0.01309767287899384,1.93
-0.010104317010344184,-0.008947165492138694,1.935
-0.015230019305407358,-0.00968551814749493,1.94
-0.008434395696396762,-0.013020775493446442,1.945
-0.004904024974860727,-0.02390298337347979,1.95
-0.008809706850473492,-0.03419625692768322,1.955
-0.012249942425186075,-0.02947906535585923,1.96
-0.015510657576282028,-0.01808850651701664,1.965
-0.016757272258646632,-0.017192073377405293,1.97
-0.008583469273353343,-0.0249432284251593,1.975
0.00020953046608622062,-0.029731422110848667,1.98
-0.004505347031593719,-0.027642919711490795,1.985
-0.01401910671905128,-0.02117554659138268,1.99
-0.014970138230127758,-0.015069605426743066,1.995
-0.013569246342274303,-0.013645793799529717,2.0
-0.015723482864866592,-0.015601203434398449,2.005
-0.015323117949822305,-0.01539527663518609,2.01
-0.01330176267729849,-0.010521466129228775,2.015
-0.015741376245128204,-0.0029965073523962045,2.02
-0.01657955782789168,0.0036283825617255796,2.025
-0.00730118652541023,0.006088455021246596,2.03
0.006422516176359963,0.004704317648266789,2.035
0.01165010841465489,0.00412885791585594,2.04
0.0054379387216449745,0.006646401379576984,2.045
3.421131690696779e-17,0.009880007311205424,2.05
0.005336013906730188,0.01279581613273334,2.055
0.011541670803902046,0.016810137384999695,2.06
0.006203629807711416,0.02357874833413937,2.065
-0.0029106794989662782,0.033697518106621346,2.07
-0.0046557452574696135,0.04069618431953722,2.075
-0.001267704215935476,0.036673964941874616,2.08
0.005493872362090415,0.030374669849119667,2.085
0.017336590407655634,0.03691085847237982,2.09
0.03241246782229251,0.0531742229515472,2.095
0.05518340497342447,0.06794872700526472,2.1
0.09147866198529366,0.07402866789023402,2.105
0.13298945616205907,0.06172729623160641,2.11
0.17369486898966596,0.036730459955116264,2.115
0.21928849799976025,0.016215430429816626,2.12
0.2662143435315293,-0.023031346749927142,2.125
0.30420870295115365,-0.1122478528777286,2.13
0.32214117166837464,-0.20226840840082738,2.135
0.2913054633395519,-0.22595137359080397,2.14
0.20113696814883616,-0.20710092285981585,2.145
0.10258782363825772,-0.18717373540348187,2.15
0.039763725838082235,-0.14495044342116292,2.155
-0.005495439721317605,-0.08167013401002314,2.16
-0.04002694074677841,-0.04745426450866686,2.165
-0.04004406174204573,-0.04307496070577066,2.17
-0.02964002193361624,-0.02964002193361613,2.175
-0.045064201930218546,-0.012094195496788298,2.18
-0.0542082115590059,-0.011871861507225258,2.185
-0.03253942822179402,-0.01910644870782632,2.19
-0.02333964131069433,-0.022785689295449166,2.195
-0.04018191295955015,-0.025440893722298647,2.2
-0.04245953438924808,-0.025374966936351606,2.205
-0.03171103484116479,-0.02210278697677695,2.21
-0.036363724198650235,-0.019295989297689664,2.215
-0.0387229233307545,-0.0163276229640261,2.22
-0.026534915016335665,-0.011699056047146985,2.225
-0.030659274496146086,-0.0043998577917941616,2.23
-0.04658275289527859,0.003509899737684257,2.235
-0.033009421144611945,0.0038926024653367034,2.24
-0.005784820875317728,2.5375750275031803e-05,2.245
-0.011098012504613666,0.004728053238420718,2.25
-0.029730768204188858,0.011624660365428169,2.255
-0.022731246235723798,0.010313598103035703,2.26
-0.014134855179668547,0.011013862602602335,2.265
-0.029652200064554907,0.015588448175417883,2.27
-0.03758421883992372,0.014694195045596553,2.275
-0.02573255509757735,0.020218748397467064,2.28
-0.03216220568127333,0.0363558093297651,2.285
-0.055731247036988944,0.0388860979618338,2.29
-0.05368314196174007,0.029891995057109887,2.295
-0.03458002558921892,0.03458002558921896,2.3
-0.03681415011712288,0.04190787878559022,2.305
-0.04815448304621047,0.03636958886705165,2.31
-0.045182827291170305,0.03817706462540362,2.315
-0.04447629736165312,0.04810159737330936,2.32
-0.05063106852464095,0.03921880034314854,2.325
-0.04304624787368162,0.0215502856167626,2.33
-0.03337268058817544,0.022600054086139906,2.335
-0.04178165826832358,0.030245363860445112,2.34
-0.04228654244296524,0.02417724080658049,2.345
-0.016346750414034147,0.013603583026770904,2.35
2.9353370122122524e-05,0.009788596899850809,2.355
-0.01276852183462524,0.007682521154238263,2.36
-0.021087253251780947,0.0007813837123641251,2.365
-0.01057576089339466,-0.00931582641405234,2.37
-0.006587473253194681,-0.014972942737846929,2.375
-0.011099912501536646,-0.014200880132797716,2.38
-0.006344561474154219,-0.014419794471939341,2.385
-0.0035851343344298786,-0.01598743588074593,2.39
-0.011833213722088697,-0.014338771206254243,2.395
-0.006357721827006197,-0.016995010916910965,2.4
0.014755355627168123,-0.02661549682738688,2.405
0.018900875648816973,-0.02931681312886481,2.41
0.00958042073926882,-0.024844551886154895,2.415
0.015512429738818344,-0.027008422595561063,2.42
0.02470001827801352,-0.02964002193361623,2.425
0.02030594680573757,-0.020849625275262348,2.43
0.023280291168671436,-0.0123181053201317,2.435
0.034272253651104,-0.014285063700156614,2.44
0.025868167952939877,-0.01640988437115815,2.445
0.012841990910033931,-0.014049984217900083,2.45
0.024717436613923532,-0.01428291905462492,2.455
0.03778509581742724,-0.015804039824845198,2.46
0.02632718156483399,-0.014488995663256118,2.465
0.014466637411589194,-0.014246013351404931,2.47
0.018656530943925012,-0.015567753228421794,2.475
0.019404854386178748,-0.014731777675405401,2.48
0.009633039240202007,-0.014437098517332091,2.485
0.0015912654626802302,-0.014130422686852284,2.49
-0.00444740952909772,-0.0057218146648802025,2.495
-0.014088029763795832,0.00494659412829381,2.5
-0.0217902413148224,0.001908391448844158,2.505
-0.02069469268941001,-0.008771481453424195,2.51
-0.016666998075651716,-0.009156802834782556,2.515
-0.02244052453995727,-0.004080467144516976,2.52
-0.036341229946227266,-0.004690299400529756,2.525
-0.041113693515798286,-0.0025980846603729612,2.53
-0.03346313558677493,0.005963024604182845,2.535
-0.028898853156169607,0.009847471276126635,2.54
-0.03118927641472492,0.010641272633696023,2.545
-0.029640021933616218,0.014820010966808095,2.55
-0.02121343028396587,0.011787455172792893,2.555
-0.009370082066416437,-0.0006366807061953481,2.56
0.0034319224511145502,-0.005318436991282035,2.565
0.014948767114310904,0.0005023928701878991,2.57
0.030847218758693444,0.006960730106334644,2.575
0.0600485875504691,0.0166486238012356,2.58
0.09786414451804712,0.02700049745899537,2.585
0.1353947512940818,0.022394102071941122,2.59
0.17315304646239463,0.0036072532395404235,2.595
0.21246385010627297,-0.022649948974281263,2.6
0.25469467453206723,-0.0733988722521135,2.605
0.29552717197358747,-0.15385280859896297,2.61
0.30320166254266334,-0.22086346806757398,2.615
0.24738357004672387,-0.23316390421849217,2.62
0.15335419538335893,-0.20491558816634445,2.625
0.0711674305089652,-0.16951904302502063,2.63
0.013692808708495858,-0.12807620960539517,2.635
-0.025374301480677316,-0.07287693493547288,2.64
-0.04123555722422871,-0.024994800024256317,2.645
-0.04018562480440678,-0.006088175527494443,2.65
-0.03971567385063358,-0.004961532325290222,2.655
-0.03901002393478679,-0.004966633908082511,2.66
-0.029808343749904886,-0.007673235426487821,2.665
-0.019885490396877075,-0.011858771256012432,2.67
-0.019760014622410803,-0.009880007311205455,2.675
-0.0266004134478356,-0.005620337174370487,2.68
-0.030262859237144665,-0.0050906033429130365,2.685
-0.02558581534536024,-0.00508315359556439,2.69
-0.0210583915144721,-0.002986831250536168,2.695
-0.02814632406341476,0.0018982075757650002,2.7
-0.038653241486772336,0.008675466268801899,2.705
-0.03642271287167375,0.010923788688104724,2.71
-0.028769279322674143,0.009920110518676951,2.715
-0.031745647209308024,0.013385531598795629,2.72
-0.03734997147488484,0.014717192673758057,2.725
-0.03430215292506011,0.00961807802747083,2.73
-0.034979300221155876,0.011199504906826712,2.735
-0.044252465199547654,0.0172451452485853,2.74
-0.04481605305520502,0.015037378717949773,2.745
-0.041827379131264275,0.017244066710097653,2.75
-0.057174334942744605,0.028645516163958287,2.755
-0.07028295496902183,0.026748366006491175,2.76
-0.05163349461284039,0.018560476401934412,2.765
-0.03266521162889001,0.028659721033111745,2.77
-0.04432384756810715,0.03964668663368916,2.775
-0.051869500147769386,0.03675443605198931,2.78
-0.03780962493657504,0.04055807269579018,2.785
-0.038362759130324296,0.04203964832209304,2.79
-0.04886135979887515,0.020372951276349693,2.795
-0.03458002558921888,0.00988000731120536,2.8
-0.022189897686015793,0.030823495010943433,2.805
-0.03866571651139124,0.0382503088174813,2.81
-0.041786192157323085,0.017447005887331377,2.815
-0.017461373116539915,0.0053539393298662336,2.82
-0.011721875707289867,0.0039409489476477716,2.825
-0.02398681962335015,-0.006826534182113742,2.83
-0.018235083047168796,-0.014020811544600706,2.835
-0.009662608061736088,-0.008628119942561338,2.84
-0.017428989585836382,-0.007542224792396897,2.845
-0.018029275544032313,-0.014912871334152927,2.85
-0.009608555020616994,-0.019875174423573314,2.855
-0.012850765934851885,-0.018045119740962928,2.86
-0.011757618461326662,-0.010792049888005598,2.865
0.008528730107168559,-0.005048569680201272,2.87
0.019999986427617196,-0.006909270302236223,2.875
0.009857179705037893,-0.011406438844576414,2.88
0.004125125416844987,-0.014345590292814738,2.885
0.01161501775180994,-0.01607957634856352,2.89
0.014458081749900233,-0.014025383231911857,2.895
0.010245995878016103,-0.013445251963683036,2.9
0.012772597193331785,-0.01833435672928086,2.905
0.020438472472192045,-0.013216057778385118,2.91
0.018623292580372923,0.002203019892234805,2.915
0.010934602225923917,0.001725733676883368,2.92
0.014820010966808152,-0.009880007311205398,2.925
0.022775786780197194,-0.0037180004651166444,2.93
0.013075881129345795,0.009260694588860087,2.935
-0.003735878460842397,0.005996475541286111,2.94
-0.00624991101424827,0.0013491479013056865,2.945
-0.005775890451697725,0.007126887001673926,2.95
-0.013315118421015426,0.009948755015680627,2.955
-0.015473306197799956,0.01175573419714392,2.96
-0.01562353655984761,0.021908596382240134,2.965
-0.02628216258681392,0.026918682079063286,2.97
-0.02867714646516075,0.01787841383080249,2.975
-0.013928881657969192,0.00968493900016273,2.98
-0.012151420266575157,0.011938291140348316,2.985
-0.027837658505581796,0.01723986158696311,2.99
-0.030136285755929918,0.019661071062684044,2.995
-0.022466277495992004,0.022025003307861175,3.0
-0.028617069208252854,0.026405536478475097,3.005
-0.03519575728173117,0.02932422131128223,3.01
-0.0275489398863967,0.03234597754592671,3.015
-0.025884943384592768,0.042805293247064946,3.02
-0.034264343957136505,0.05354391774883311,3.025
-0.02718840256601115,0.05175121953518584,3.03
-0.007921979438839787,0.04997912323361276,3.035
-0.0052651599214377665,0.06291336323998588,3.04
-0.015685147967916,0.07249901626153478,3.045
-0.01482001096680812,0.06422004752283507,3.05
-0.0063644203199238756,0.055198534220780276,3.055
-0.0055641340026493374,0.05424006445812027,3.06
-0.005461026581352471,0.05023531270340154,3.065
-0.00024316725260529505,0.04480776037019371,3.07
-0.0014853465209994105,0.04469830873986058,3.075
-0.005777588241163801,0.04163331864114588,3.08
0.0036785501877089326,0.03154482566299202,3.085
0.016041210977447196,0.023822051552579705,3.09
0.010120093799547548,0.02349643573964116,3.095
-0.0012699041898244499,0.027248410934912277,3.1
0.0003420959653328184,0.02964769767943866,3.105
0.0024618609606236754,0.0268722434397505,3.11
-0.002664085599085295,0.023750711392981506,3.115
-0.0004577698851288377,0.029010675690374074,3.12
0.004493869707480205,0.0400950058965877,3.125
-0.005259709112499575,0.04477207658878165,3.13
-0.015129824612769427,0.036927847185095376,3.135
-0.006504364452619931,0.025725317627740215,3.14
-0.00042851971243011526,0.026298930541616493,3.145
-0.014425054903796322,0.03699982204916432,3.15
-0.026389447289332724,0.040417456908485465,3.155
-0.024257238412342067,0.03364068120147553,3.16
-0.026259239426188217,0.029611987313592974,3.165
-0.032617862096534854,0.029834600197581197,3.17
-0.029640021933616256,0.029640021933616315,3.175
-0.03134641127759163,0.03447944445412862,3.18
-0.046345286759030185,0.042557473639733126,3.185
-0.04644311818177234,0.040604970025486374,3.19
-0.026161212695447723,0.03138468058535077,3.195
-0.02150349744556818,0.030855220998100043,3.2
-0.03666754997709064,0.03821536058926887,3.205
-0.04048442301460652,0.03959019754080939,3.21
-0.0335982929553481,0.03325438227001583,3.215
-0.03389649375540673,0.02928176652603705,3.22
-0.03340132141613132,0.0317380926571645,3.225
-0.02961705112711018,0.03465363985530612,3.23
-0.03557916714209115,0.03432241118019958,3.235
-0.0397071933803318,0.036389408416938426,3.24
-0.02588430983666048,0.043979158223227933,3.245
-0.011234324714286033,0.047651907396716986,3.25
-0.011174599947741054,0.041485041606272005,3.255
-0.014687179175241285,0.03846263070023763,3.26
-0.013509937298139907,0.04930162576337252,3.265
-0.008017716019019804,0.0614177427391685,3.27
0.001972481239915235,0.06388137201548465,3.275
0.008899543013760976,0.06740726582838466,3.28
0.010074298602691965,0.07470738785369237,3.285
0.015740424594271957,0.07246716014769085,3.29
0.024092562750846227,0.06664115248597122,3.295
0.02964002193361624,0.06916005117843783,3.3
0.04535085566090748,0.06229590046477445,3.305
0.06874588457059819,0.038422887028404996,3.31
0.07473379564142917,0.028660618347236714,3.315
0.07079164818059185,0.04648097166415106,3.32
0.08659563113856027,0.07191445326397064,3.325
0.11644574253525954,0.09145499207507939,3.33
0.14397538031248502,0.08939945069922485,3.335
0.18140740311312567,0.05701532409595873,3.34
0.23548902253732834,0.02693004309921038,3.345
0.2903402400188682,0.0018555493327793496,3.35
0.3330769535623857,-0.07588342302409606,3.355
0.34757920739598336,-0.18322590688672424,3.36
0.3091336903948906,-0.21518937527665316,3.365
0.21901929252445151,-0.17557337784530114,3.37
0.1141165615859656,-0.14394788544772216,3.375
0.03338938550695733,-0.10304827509298649,3.38
-0.009947801282914608,-0.02400960166143319,3.385
-0.02999516571799266,0.027484234427358263,3.39
-0.041648672398780645,0.028311133115077353,3.395
-0.04177717293175743,0.037275316937094134,3.4
-0.03534057343668245,0.05694992064650948,3.405
-0.04092008828096778,0.052761121465642956,3.41
-0.048108218600191564,0.04384455351143346,3.415
-0.03395523034858944,0.04649291736104672,3.42
-0.019760014622410844,0.04446003290042427,3.425
-0.03109643837933465,0.044163706602470355,3.43
-0.0412976784408853,0.05427341493657587,3.435
-0.031064423506313523,0.05932739744533394,3.44
-0.02801851766246405,0.058389760123185204,3.445
-0.03659488064297505,0.05991124927117069,3.45
-0.028873153580531014,0.06253588544135737,3.455
-0.01682368080899664,0.07446209840036387,3.46
-0.02814725671880468,0.09099621682361209,3.465
-0.038425861153790826,0.08575680904371645,3.47
-0.020872260516033553,0.07114981716692169,3.475
-0.004712577958390426,0.08019600975149335,3.48
-0.013647340384588874,0.0943800667185554,3.485
-0.021221694734926366,0.0904661679486493,3.49
-0.010708447777967823,0.09300957796646663,3.495
-0.0030319712199956762,0.10938397661096251,3.5
-0.006774075083418436,0.11218447035822221,3.505
-0.006171593580500891,0.10424453778797288,3.51
0.0015912810604814906,0.10739903487208632,3.515
0.005120771052898471,0.11489240340428568,3.52
0.004396054478263049,0.1145878831842678,3.525
0.009226575514245347,0.11174008156865686,3.53
0.02137952586740048,0.10794302039128217,3.535
0.029930196287273957,0.09864632937191559,3.54
0.026044982172385964,0.089239007950162,3.545
0.019760014622410796,0.08892006580084869,3.55
0.024773243660757456,0.09379686892932801,3.555
0.03139295790238605,0.09169310490745101,3.56
0.02587479735940839,0.08450532514516224,3.565
0.01919521065257623,0.08498516237813182,3.57
0.020357344051042562,0.09018259557320153,3.575
0.016918966436874936,0.08954238993318905,3.58
0.010266735515886168,0.08915944882026715,3.585
0.01713075582342714,0.09515103224563097,3.59
0.02625932790377258,0.09902608729186105,3.595
0.01550777015935508,0.09723921170011905,3.6
-0.0005688216509537633,0.0936007710001812,3.605
0.0008449736267835094,0.08957253313172933,3.61
0.006826897886267427,0.09001661357869718,3.615
0.0006040916796715538,0.09380354489017818,3.62
-0.0057767768953281475,0.08958774860452291,3.625
-0.004044912174349272,0.08170782142966491,3.63
-0.007983718344882993,0.08306054021357315,3.635
-0.01729044539342315,0.08604988794377287,3.64
-0.011364867256279181,0.08311557215335316,3.645
0.006487460776229231,0.08305445191388235,3.65
0.009460942164669514,0.08532901226976385,3.655
-0.0010888469878172827,0.08369183378166452,3.66
0.00011497528532905985,0.08329190372091061,3.665
0.010439685949339406,0.08443071633512193,3.67
0.009880007311205382,0.08398006214524596,3.675
0.004349635522976801,0.08696052073865308,3.68
0.006945138809585099,0.08883501662596337,3.685
0.00993755643638097,0.08435574003257387,3.69
0.008602718328075633,0.0869225801866697,3.695
0.011560298820141804,0.09626055286138534,3.7
0.018439067081886112,0.0952799992419943,3.705
0.021544472637985163,0.09258677311737323,3.71
0.018844347863266095,0.1005999138602302,3.715
0.012084751880748309,0.10473387868267942,3.72
0.008892113006823327,0.10209237337002243,3.725
0.015377188797393993,0.10389815356580479,3.73
0.021031419277921428,0.1022093856343874,3.735
0.016413784389214103,0.09639682670109188,3.74
0.010108521750530794,0.09857380742042303,3.745
0.008667080360117837,0.09648275466846662,3.75
0.011810325440092383,0.08487591742835475,3.755
0.02235031400711472,0.0867698892205702,3.76
0.03138166025083831,0.09644852168240466,3.765
0.02812915286131111,0.09159358993633103,3.77
0.02721153960381508,0.08751132024319863,3.775
0.03589959068674754,0.09175025432895459,3.78
0.0332532952813674,0.08184676831429813,3.785
0.021286419375728532,0.0683229992517296,3.79
0.02158300411530998,0.0760590133040823,3.795
0.01976001462241082,0.08892006580084864,3.8
0.0017069235459772905,0.09224828470367348,3.805
-0.0041054319392179175,0.09519697933800841,3.81
0.00875330668739485,0.09059038871107705,3.815
0.006618331431004107,0.0748300534017707,3.82
-0.009346865318628536,0.06959196213823339,3.825
-0.01129705028376996,0.0773923535169551,3.83
-0.008124899018496964,0.0806220416510664,3.835
-0.017035843870942258,0.0785885413032823,3.84
-0.024591262279696914,0.07555301409285194,3.845
-0.02414880434297666,0.07290467348992569,3.85
-0.030351826470628836,0.07979533211669003,3.855
-0.042225257329863666,0.09167801910623022,3.86
-0.04235452395144417,0.09286357977376239,3.865
-0.030366944828439702,0.08899960923967705,3.87
-0.02515177220767705,0.08956729148729672,3.875
-0.03369806164075046,0.08746892468268887,3.88
-0.03979719866682342,0.08395656778691148,3.885
-0.035466348184662905,0.08653633436700889,3.89
-0.03581435781484018,0.0891587352219005,3.895
-0.043513813871523324,0.08879926668696528,3.9
-0.04155229871765326,0.08958094778198389,3.905
-0.03415317585210956,0.08864551716414341,3.91
-0.039624624241909996,0.08764520493691141,3.915
-0.04787624559680116,0.09153735617346626,3.92
-0.0395200292448216,0.09386006945645141,3.925
-0.02399051452715737,0.09488648704648261,3.93
-0.0195823449975852,0.10320561331441234,3.935
-0.02419036322099406,0.10891892150331468,3.94
-0.02457949645610434,0.1026765466062078,3.945
-0.01694608689296338,0.09872881639100546,3.95
-0.010477563744931178,0.10289049658065137,3.955
-0.008880387023387636,0.10400140956063411,3.96
-0.003510971967202363,0.10423848515564588,3.965
0.0013774100009475224,0.11081242564754999,3.97
-0.005198970614476907,0.11628611082221266,3.975
-0.0040857200029436585,0.11318213339927209,3.98
0.021508161230048648,0.10363256201376365,3.985
0.040930037579654174,0.0960361781087828,3.99
0.03511533049008909,0.10271379031405085,3.995
0.03668050270880366,0.12442316677866833,4.0
0.058329275997589115,0.1442705428131076,4.005
0.07626864479434485,0.14563745486866345,4.01
0.09694770762634242,0.12498202987444426,4.015
0.1417103925769815,0.09762976425749106,4.02
0.1992093965364598,0.080298554789301,4.025
0.2579648808821009,0.04722274955977133,4.03
0.31156738107898124,-0.03750524835749259,4.035
0.3183806016364575,-0.1290410982495713,4.04
0.24875439325665025,-0.14750432706428465,4.045
0.1432601060124785,-0.10374007676765679,4.05
0.053893139224689295,-0.06179062592294264,4.055
-0.01082632162877945,-0.030543754165354833,4.06
-0.05134697845712818,0.005557465174812724,4.065
-0.06382369694423516,0.033447868741167106,4.07
-0.06483114477994815,0.048696742958900155,4.075
-0.07198259468994121,0.06184133897335208,4.08
-0.07650758975958916,0.06574635729816435,4.085
-0.06632315993589645,0.057554746991341506,4.09
-0.051897363454730394,0.05355255528367167,4.095
-0.050456972034566894,0.05584683246349097,4.1
-0.05987511870722017,0.05412251849060742,4.105
-0.06483030097886804,0.05262601440731792,4.11
-0.06319990899471549,0.05692712819834093,4.115
-0.06405594970549043,0.05935480572461005,4.12
-0.06554160131258022,0.05612047442965335,4.125
-0.06320137850053004,0.05431666230822889,4.13
-0.06365053776309211,0.05820924370113043,4.135
-0.06499797614640876,0.06316584361438991,4.14
-0.05613108381657334,0.06408977418288321,4.145
-0.0453639832179948,0.06371090312512512,4.15
-0.0465921640315986,0.06644964432178065,4.155
-0.04919598292863219,0.06935471695353625,4.16
-0.042612493590276704,0.06930267694423856,4.165
-0.03783636633427582,0.06977586762467414,4.17
-0.03952002924482169,0.07410005483404063,4.175
-0.0397590187909371,0.08286347708551625,4.18
-0.039944918884845526,0.09295823146819009,4.185
-0.04006503909506035,0.09459001705743417,4.19
-0.0302627628108143,0.08522599130896141,4.195
-0.01600932720460315,0.07760434495841637,4.2
-0.013564696648173176,0.07822786711542715,4.205
-0.018988521001014322,0.08234250081916983,4.21
-0.019335966519715458,0.09091813937702167,4.215
-0.016023213237642858,0.0992594696978828,4.22
-0.012656384161756216,0.09225207540493248,4.225
-0.009845386433451245,0.07854255220882408,4.23
-0.014597103113236297,0.08220193134723489,4.235
-0.02388587173460793,0.09371694578024183,4.24
-0.02050528103217726,0.0896387866988565,4.245
-0.007589877813379505,0.07848186410337371,4.25
-0.006534426073096079,0.07134180279053495,4.255
-0.014176807843700607,0.05764038393330929,4.26
-0.01288858018736706,0.04371794148354279,4.265
-0.010079400791033238,0.04628494751978518,4.27
-0.017239409618862524,0.04799765941360158,4.275
-0.021908560191988332,0.032508160183228836,4.28
-0.019646692363157026,0.025135739392485184,4.285
-0.02527230925345732,0.03653208029779374,4.29
-0.03207970152993936,0.036843567702913235,4.295
-0.019760014622410782,0.024700018278013536,4.3
-0.0017726324192669895,0.030481407214005576,4.305
-0.0032518474499470466,0.0433983537075776,4.31
-0.01402500766551674,0.03233971181084534,4.315
-0.01575635144515925,0.014626263220324969,4.32
-0.014959935529644081,0.0176912952455071,4.325
-0.015509859241044244,0.02487360904005964,4.33
-0.010879292813273357,0.022007307646082077,4.335
-0.010966189196529554,0.02670508267402109,4.34
-0.021956561398981302,0.03839341712586448,4.345
-0.022859726340684942,0.035354316932978455,4.35
-0.00910791464158106,0.024265777990425993,4.355
-0.008072247736014403,0.025618920882563397,4.36
-0.02189259586950484,0.03279363326861563,4.365
-0.024988998980441886,0.0345099402750876,4.37
-0.021217033675374624,0.03873047445215807,4.375
-0.028595406020265442,0.04785736118269504,4.38
-0.03484551578414894,0.053602327608944185,4.385
-0.03160548122496428,0.058631521046943386,4.39
-0.037488002012533446,0.06572124649850244,4.395
-0.0490819483569899,0.06581970571771449,4.4
-0.04239190728890908,0.06140906485212226,4.405
-0.028698004143629205,0.06511405875084164,4.41
-0.03355773035569688,0.0701510633201305,4.415
-0.045230163185501555,0.06588094462995207,4.42
-0.04446003290042433,0.06422004752283518,4.425
-0.039846686062224294,0.07146479852510479,4.43
-0.03982338067728245,0.07413630310489111,4.435
-0.03960982374004282,0.07363013171444405,4.44
-0.03955295930876923,0.08070033156726462,4.445
-0.038721238194818305,0.08307211200907635,4.45
-0.03171901839771203,0.07207469367382863,4.455
-0.02635157300995102,0.06450254478254949,4.46
-0.030944197435914082,0.06391104428619575,4.465
-0.03507925944296459,0.05741857799261337,4.47
-0.03290756155523974,0.051927990213251146,4.475
-0.034947445460286435,0.0544754899163168,4.48
-0.04204683585763106,0.05026544203384607,4.485
-0.04580722459293693,0.03947523512401629,4.49
-0.049085937879355265,0.03919074229718702,4.495
-0.053961022267076976,0.04279693931624801,4.5
-0.05319036072796916,0.035717508063419834,4.505
-0.04953197578339561,0.02590624101844115,4.51
-0.05141738207147678,0.021414766695340128,4.515
-0.055044848192290614,0.019601586023839535,4.52
-0.057797083834954334,0.02278150533246329,4.525
-0.06317781267603428,0.027666144630662613,4.53
-0.06371883978383214,0.023716258473347122,4.535
-0.05832082973101077,0.016136388875927398,4.54
-0.06630297798097433,0.014846349830763354,4.545
-0.08398006214524596,0.014820010966808156,4.55
-0.08031202851614601,0.013805376320435771,4.555
-0.06181959517573781,0.016052927046257416,4.56
-0.06265930392122,0.015411262130742356,4.565
-0.07411867220671997,0.010103342947822135,4.57
-0.07251637775999849,0.011210598394500691,4.575
-0.07232623504801454,0.01523886409314131,4.58
-0.07864604649461047,0.009679080603347065,4.585
-0.07199323493148542,0.005131831674455564,4.59
-0.0688271235044973,0.014884554567646195,4.595
-0.08589019911536917,0.02479193305327619,4.6
-0.08248001925002088,0.02464424527874207,4.605
-0.04876793761024306,0.02914196436780372,4.61
-0.04251589719584542,0.03874641577972427,4.615
-0.06353438258423219,0.03521112973789805,4.62
-0.0547812463491112,0.02876916267456562,4.625
-0.035242768762307704,0.040987953767748546,4.63
-0.04998860755398495,0.050610751802928636,4.635
-0.06164848810945146,0.03611545075657832,4.64
-0.044713022994136216,0.032056351675801016,4.645
-0.0441310943879525,0.06013755092235187,4.65
-0.05762800325588366,0.07722526776828234,4.655
-0.04091850907474463,0.0616343076316357,4.66
-0.021555341806911328,0.05145534499576211,4.665
-0.0358447761912941,0.060269104810334456,4.67
-0.04446003290042435,0.0642200475228352,4.675
-0.028747468063005256,0.06515618816552711,4.68
-0.02756781092388979,0.07234148181559451,4.685
-0.03908175810190846,0.07036917651396861,4.69
-0.0343148836530223,0.0616049027446628,4.695
-0.030208073366158127,0.068268922580637,4.7
-0.03865914845936355,0.08230957927526625,4.705
-0.033557087298488865,0.08319868960769487,4.71
-0.01739313252147723,0.0785443747024183,4.715
-0.016681149029153266,0.07912376120376735,4.72
-0.023852802751058666,0.0759133903295161,4.725
-0.024730027301104383,0.0632867515025434,4.73
-0.029656860704341502,0.04955935050334624,4.735
-0.0386342415341033,0.04015274989178221,4.74
-0.03967850623207794,0.030371657696326427,4.745
-0.03813281403609533,0.01871418219024827,4.75
-0.040570801915645764,0.014840950481706522,4.755
-0.040179453747395434,0.01937776803094792,4.76
-0.036266546114747035,0.015346907431947474,4.765
-0.03434951715863677,0.0017903163761049613,4.77
-0.03426468458711496,-0.0016010984188812387,4.775
-0.03630211253861133,0.0032302308349249275,4.78
-0.03985799981201528,-0.0010779864352883583,4.785
-0.04007386026626012,-0.008818259442674678,4.79
-0.039871414562768305,-0.009694273016260014,4.795
-0.04446003290042432,-0.00988000731120543,4.8
-0.0465935394062727,-0.008565004710293677,4.805
-0.042182947349999424,-0.001738796569885779,4.81
-0.03956204321490206,0.00038638822526420626,4.815
-0.03839341626095875,-0.0037888317085493003,4.82
-0.03238862641863874,-0.004995125745970157,4.825
-0.02909226452783507,-0.008094715467378812,4.83
-0.03219272962916061,-0.014463451079801218,4.835
-0.027759210208182988,-0.006683606264095305,4.84
-0.014078659367245606,0.02149648975402453,4.845
-0.005390407976902787,0.05528290398943526,4.85
0.00627777510974846,0.07451889313774147,4.855
0.044622791300269214,0.06563035408127692,4.86
0.1068265565371914,0.044281972574795186,4.865
0.17367470530190993,0.035073022092995454,4.87
0.23999241551411135,0.011211633559125743,4.875
0.29272102259147675,-0.0614240385593403,4.88
0.2975142687091197,-0.1354758547263539,4.885
0.24532058412619245,-0.15013002943042322,4.89
0.16779254774064392,-0.12667943213890842,4.895
0.08858439166655266,-0.09704821342758513,4.9
0.014267361135401564,-0.044541740166162774,4.905
-0.03326638650738211,0.022312872273063142,4.91
-0.04144730584691391,0.059642502737931195,4.915
-0.03948610665295313,0.06550381119128582,4.92
-0.04940003655602707,0.06916005117843786,4.925
-0.053387531684575454,0.07609188651825059,4.93
-0.04624601217173874,0.08095911155373756,4.935
-0.048327978373397355,0.08396518852018245,4.94
-0.055403000473212574,0.08014370771208565,4.945
-0.05308293801678879,0.07189726383610921,4.95
-0.05625257932505326,0.07231504295052694,4.955
-0.06786912944113904,0.08035201126895744,4.96
-0.061017414858833184,0.08409832662517706,4.965
-0.042037798361273825,0.08128504165067912,4.97
-0.04351410588510803,0.07386677070181741,4.975
-0.05466906763463726,0.0636350149626555,4.98
-0.05164130138805482,0.058613901850290535,4.985
-0.05071320909856319,0.06032598728966291,4.99
-0.05898499732277963,0.055158720142089175,4.995
-0.056892485307803504,0.036904028876782076,5.0
-0.05618985015518229,0.019298121585995177,5.005
-0.07173822718891662,0.014478442078006854,5.01
-0.07156885335586291,0.01786681214082743,5.015
-0.04905932814850469,0.019794912376137865,5.02
-0.0484701254471628,0.016679361594770167,5.025
-0.06626736411766462,0.010081809762098584,5.03
-0.06268163595055788,0.004420434402371282,5.035
-0.05771353375945386,0.0015651949043417276,5.04
-0.07653248759428066,-0.00326240709539192,5.045
-0.08398006214524606,-0.00988000731120545,5.05
-0.07292901569309324,-0.00711018168577769,5.055
-0.08025307442610848,0.006317096877212637,5.06
-0.08976173146281939,0.014676277502190067,5.065
-0.07286903082907634,0.01225317377047577,5.07
-0.06551430396811597,0.009462299664164354,5.075
-0.08165224215073316,0.009738761188956861,5.08
-0.07875515649171753,0.01092998496016106,5.085
-0.06238940293193448,0.01604828366238175,5.09
-0.06894949872100983,0.0203134737016468,5.095
-0.07704738605781523,0.017342671437374873,5.1
-0.06871207112282458,0.020442254956124856,5.105
-0.0728773031396674,0.037203282043641685,5.11
-0.08002796237899862,0.04737954895507822,5.115
-0.056455671458182005,0.04458036984954655,5.12
-0.03195521761602945,0.04865967443734523,5.125
-0.040972245738862684,0.05564283962543403,5.13
-0.05407037475039022,0.04692528935812017,5.135
-0.050738913433471027,0.04013582641829122,5.14
-0.050027854882345194,0.05393420413023951,5.145
-0.05095287368532058,0.06472439124823952,5.15
-0.045357220319758314,0.060845487929803314,5.155
-0.05115561494326413,0.06565461102958614,5.16
-0.06692165078684664,0.0755135151437527,5.165
-0.06496147330344718,0.06662088496162832,5.17
-0.049400036556027094,0.05434004021162972,5.175
-0.04594950775359743,0.059672270165625846,5.18
-0.05205526929698465,0.06499791432551047,5.185
-0.054278661773504426,0.05988627655341434,5.19
-0.055038416140283326,0.05848465978914663,5.195
-0.052701509577350515,0.058769769853849615,5.2
-0.04217862962802144,0.054713804416981586,5.205
-0.03601999191918128,0.05669775270203737,5.21
-0.04036130648041707,0.058657116853475424,5.215
-0.03571766178121775,0.04584140332552654,5.22
-0.01887183640636173,0.032195611732393645,5.225
-0.01523880731379537,0.029560982385379894,5.23
-0.026347119019601278,0.024352783908473757,5.235
-0.02976792496483761,0.0163364327276977,5.24
-0.029374545873345013,0.014895056769438067,5.245
-0.03675520336047328,0.008631843614850594,5.25
-0.03906965979203149,-0.004532382131539487,5.255
-0.03819255291492871,-0.006163948116747453,5.26
-0.05116639341430387,0.00035373685609437215,5.265
-0.058863640116609384,-0.0011465028247178988,5.27
-0.04402472911924291,-0.004879666796856081,5.275
-0.03905835715353143,-0.004270321023508479,5.28
-0.056613567945507884,-0.00516860203684749,5.285
-0.06265023267950061,-0.005674511602010336,5.29
-0.05538223168615815,-0.004250715274500844,5.295
-0.05928004386723248,-0.004940003655602727,5.3
-0.0629544101086925,0.0010510454173467906,5.305
-0.05576663676591439,0.01726027488996676,5.31
-0.05407172059737447,0.024940559450324428,5.315
-0.05276328370617048,0.02002203640137907,5.32
-0.03997182459790451,0.021769945024633277,5.325
-0.03366727030647775,0.03233186616430692,5.33
-0.039022467994171715,0.038404112052002226,5.335
-0.038929394716988135,0.039682258901702655,5.34
-0.037830522726881255,0.03999971704922997,5.345
-0.04319538156991298,0.03832889483130188,5.35
-0.044341217358148506,0.03984951802782012,5.355
-0.04330118050516177,0.04888326826440905,5.36
-0.04528336368701592,0.0589345749834073,5.365
-0.04009578265439735,0.06406260246903651,5.37
-0.03324045684143997,0.06494089534610913,5.375
-0.03672627400888268,0.06367142799702685,5.38
-0.03960860695575447,0.06377499021552747,5.385
-0.041153930109446096,0.06720451759981498,5.39
-0.05287554837626065,0.0691463878883248,5.395
-0.0600697065716291,0.06570903678634653,5.4
-0.057119012288084345,0.06229234774343239,5.405
-0.0661306574613947,0.06480190627252173,5.41
-0.07672017113282031,0.06890777615028805,5.415
-0.0653188865267756,0.06782993192172425,5.42
-0.05434004021162976,0.0642200475228351,5.425
-0.058860591483632214,0.06368003743051098,5.43
-0.05652821332643738,0.06418555542828165,5.435
-0.04960228370800279,0.060252628202472056,5.44
-0.04978941024850745,0.04945443829256394,5.445
-0.039458763407318805,0.0353253495210722,5.45
-0.025201721635922165,0.02891076894396475,5.455
-0.029858481463635404,0.03693620283465451,5.46
-0.02659125623172418,0.05237438365782071,5.465
0.003757669986731897,0.06607484851947813,5.47
0.02566094166877728,0.06925427781502143,5.475
0.03566177019839016,0.05283423539989127,5.48
0.07113706420465848,0.02877529022163798,5.485
0.12796627309313524,0.010242338181786324,5.49
0.18425628451177903,-0.03489933157981926,5.495
0.23556246146340357,-0.12712421924647538,5.5
0.2501276556946003,-0.20501031502414702,5.505
0.2014263035084252,-0.21576024358377696,5.51
0.1274840465924216,-0.19434868903390132,5.515
0.06386742567361467,-0.17072966135021225,5.52
0.002875173962901277,-0.12360218633538919,5.525
-0.04442402953695334,-0.060309078843172936,5.53
-0.059998286284460044,-0.01565543001636846,5.535
-0.06542970406715157,0.0057498680269968665,5.54
-0.07208985565483494,0.011086577309955343,5.545
-0.06422004752283517,0.009880007311205362,5.55
-0.05378076422164474,0.02298100784465692,5.555
-0.05611796813253966,0.040462158308791345,5.56
-0.051215833813024275,0.036123481492968276,5.565
-0.03524301636430552,0.028874882264317614,5.57
-0.02905481023136309,0.0383905799690022,5.575
-0.026547415860939415,0.04436458498249306,5.58
-0.0188558973142844,0.047550205152063305,5.585
-0.021270843860064614,0.06210512606053756,5.59
-0.029186747845808804,0.06446753216462141,5.595
-0.028619378967903838,0.04983576222612663,5.6
-0.03547410675585129,0.04999159173987818,5.605
-0.049400290239289324,0.05899060866581469,5.61
-0.04325401496975513,0.05863624617914378,5.615
-0.029860634569097107,0.06803494893890212,5.62
-0.03661776820409142,0.08391173805582669,5.625
-0.0473771158027139,0.08052687814377286,5.63
-0.05255560923299012,0.07378919712924778,5.635
-0.06510525033860781,0.07728848681400707,5.64
-0.06745294728259779,0.07152789475180892,5.645
-0.05485831559288476,0.06649138672381054,5.65
-0.06481809343138438,0.07932074633271616,5.655
-0.08504210615108616,0.08305244575030216,5.66
-0.07076214502340034,0.06857116109326891,5.665
-0.051922832593504026,0.06376286151689449,5.67
-0.06422004752283517,0.0691600511784378,5.675
-0.07034381060644448,0.07203036304970142,5.68
-0.06048986137263769,0.07557609885467467,5.685
-0.06751516065677532,0.07075657828985929,5.69
-0.07270278511383588,0.058339297996500214,5.695
-0.06061888085243831,0.06303621040639544,5.7
-0.06538682554969229,0.07423061743207474,5.705
-0.07287557493773734,0.06739080143210793,5.71
-0.04839549362480083,0.06562987851148148,5.715
-0.03145578503529026,0.07829226268294,5.72
-0.04387222108375138,0.07042033869005224,5.725
-0.043807760972489375,0.048461821961114655,5.73
-0.03625276088138434,0.046794707998864406,5.735
-0.044063323767640716,0.047744695061516386,5.74
-0.03591435249496085,0.03079899784619002,5.745
-0.019134719246126978,0.019855300233194862,5.75
-0.03221826504835478,0.018998862267857256,5.755
-0.03447603404872058,0.007715298754266313,5.76
-0.0005798270357515923,-0.0013149242089573038,5.765
0.0069688144695217455,0.008420340201390744,5.77
-0.0135932382299084,0.016231007608735654,5.775
-0.004400122533414088,0.006712199199166852,5.78
0.009993122540937762,-0.0062268098143409365,5.785
-0.002023375254712876,-0.013077961275105176,5.79
9.914155917929567e-05,-0.015711626503135998,5.795
0.014820010966808085,-0.009880007311205469,5.8
0.007602383587501336,0.003964326655431817,5.805
0.010454617851043594,0.011722217967504216,5.81
0.037121529205307896,0.010030437933442046,5.815
0.03858329469622293,0.013185795832610836,5.82
0.0200800000443322,0.02241624503666532,5.825
0.022378943480232203,0.025015775539992364,5.83
0.024616468869539963,0.02512140482769355,5.835
0.0057821812668927275,0.03074528239040408,5.84
-0.008255525419819068,0.031431193953466795,5.845
-0.012126599591312553,0.027873827401667113,5.85
-0.020357209573786256,0.03533741128530889,5.855
-0.02743703190576919,0.044530327347673475,5.86
-0.03279988831078657,0.042669236196490545,5.865
-0.043724454842787246,0.04406569241257711,5.87
-0.05245939707447514,0.04852331716890716,5.875
-0.055017622229607606,0.040148120268089435,5.88
-0.05834295026292302,0.03730154001156009,5.885
-0.06409678067044883,0.05522601290924965,5.89
-0.07065055626944569,0.0638832611770959,5.895
-0.07135543031641016,0.05240334895376662,5.9
-0.062279286271701866,0.04881941382794244,5.905
-0.059943898549582916,0.05488614117866175,5.91
-0.07078416470293926,0.054756886145184376,5.915
-0.07392174213058444,0.05569115452353413,5.92
-0.06916005117843795,0.05928004386723261,5.925
-0.0744468619650887,0.05610550975001559,5.93
-0.08057997660798277,0.054881376203748326,5.935
-0.07907863942720031,0.05907585703090499,5.94
-0.08209940898291744,0.05682232567736428,5.945
-0.08278739046324003,0.05475536238819745,5.95
-0.07176333095369548,0.06225544584994206,5.955
-0.06648289546028961,0.0664703306123241,5.96
-0.06948022708908227,0.06374521734836082,5.965
-0.06607175111809196,0.06396192392729314,5.97
-0.0634142716464492,0.06289834829375372,5.975
-0.0640469541592341,0.05921307367022206,5.98
-0.055063308514314374,0.06413218421341471,5.985
-0.046266316537414386,0.0731762537781315,5.99
-0.04475936612326621,0.07426734696081183,5.995
-0.032035653249016825,0.07111345104816308,6.0
-0.014578959649711143,0.06754819171999879,6.005
-0.013919356669384717,0.060738534909508354,6.01
-0.014183572738852164,0.05369860551337156,6.015
-0.0013900397258478426,0.04785841456871946,6.02
0.005451666154205649,0.041151997024496234,6.025
0.003138717766174561,0.038080544158834634,6.03
0.005507695328531105,0.03976123071884505,6.035
0.009026871897740874,0.04003227825510843,6.04
0.011957366573709504,0.03914759323027904,6.045
0.019760014622410827,0.03952002924482164,6.05
0.02287925473718068,0.0393544316329739,6.055
0.01632365477852083,0.04005947594002015,6.06
0.010438477369156289,0.03996163473820421,6.065
0.003961921650899351,0.03366429302119756,6.07
-0.009747403031486617,0.02950372547576717,6.075
-0.022701484317100964,0.036916136560616104,6.08
-0.028003705126702947,0.04472554909524413,6.085
-0.03004349173728154,0.043996881032421546,6.09
-0.03312263811231802,0.043552490689930494,6.095
-0.03690748418523675,0.04575086871001716,6.1
-0.03969178702409179,0.04425764435112378,6.105
-0.04467673672336688,0.040967001485870395,6.11
-0.054619852610702686,0.037813720305229864,6.115
-0.05936512221140064,0.03462377581821924,6.12
-0.05653496626648036,0.038534543440316704,6.125
-0.06400030526549214,0.04729619425711455,6.13
-0.07803461314424918,0.045976949292683936,6.135
-0.07408031946912591,0.03847156237741325,6.14
-0.062349474321911826,0.041348896493831735,6.145
-0.06622356060071108,0.048747913215720966,6.15
-0.0726064788241862,0.04777350313273033,6.155
-0.06839086025482059,0.0441485365310767,6.16
-0.06456936066683118,0.04159560092930383,6.165
-0.06431534640698328,0.036810628417803894,6.17
-0.06916005117843792,0.03952002924482159,6.175
-0.08147090159520472,0.051521971432970846,6.18
-0.08038694247111933,0.05223215306526263,6.185
-0.0613134511424661,0.040599025072953286,6.19
-0.05504287115087386,0.03915187093763486,6.195
-0.06005397114763857,0.04652831231264294,6.2
-0.05211917867171009,0.04890715000861832,6.205
-0.04654388473288784,0.05357739503164268,6.21
-0.04908842362671961,0.059670429741201014,6.215
-0.033352990807111044,0.0530589555382779,6.22
-0.01675884783295551,0.0480033548416559,6.225
-0.025444861974672578,0.06022732831120442,6.23
-0.021004078794521333,0.06744611227272891,6.235
0.013906997093370062,0.059802599396084115,6.24
0.034283435185537885,0.058982747963591174,6.245
0.03667041963307456,0.06076707144164299,6.25
0.051186207264659084,0.04899076537560735,6.255
0.059994340777547575,0.046426273728551154,6.26
0.05608411945871518,0.0731792497158431,6.265
0.07808560008583763,0.10534836430608654,6.27
0.11909768074671215,0.11293328313496322,6.275
0.14191835146296494,0.09028936579803107,6.28
0.17449062719204297,0.055065717764319566,6.285
0.25254141064158253,0.02360473162786119,6.29
0.33166771992393657,-0.03296161965907051,6.295
0.35568026320339474,-0.1383201023568758,6.3
0.32395687449527705,-0.21947949968664188,6.305
0.2482403806169158,-0.2059110647326413,6.31
0.14184212047167033,-0.15735477957601507,6.315
0.04928091608141507,-0.13108239364816854,6.32
-0.0035353607601881897,-0.07499170528242992,6.325
-0.04413312558199439,0.01347095642162537,6.33
-0.0767870736229906,0.047838147368968846,6.335
-0.06982482378236905,0.03169227770320229,6.34
-0.04866015403629656,0.03717782189195849,6.345
-0.06209996611370118,0.05058019686408045,6.35
-0.07911130664371777,0.038527123049964286,6.355
-0.06518936445024409,0.03415417065835492,6.36
-0.06172458159633772,0.04348925302988513,6.365
-0.07845219034123312,0.03545622889442031,6.37
-0.07448776421356613,0.03018458252900795,6.375
-0.07175319108532491,0.04612448401075279,6.38
-0.09549455844819553,0.047211230369204216,6.385
-0.09324655811282755,0.033564531965108994,6.39
-0.06312518722585503,0.04489748637732674,6.395
-0.07017125205277226,0.061007955504830985,6.4
-0.09119767602472718,0.04502539738885261,6.405
-0.0762635584680816,0.029396747460182004,6.41
-0.07281766614283736,0.042742348732420984,6.415
-0.09881493130504783,0.050991902726458975,6.42
-0.09386006945645142,0.039520029244821606,6.425
-0.07346001785026637,0.040236414532200386,6.43
-0.09021775737735255,0.056849947116163084,6.435
-0.10081687988661404,0.0642292373057185,6.44
-0.0724217238875131,0.06322896086626797,6.445
-0.05982812359059397,0.06485687526763197,6.45
-0.07316073274079572,0.06453130718620483,6.455
-0.0640413549624535,0.06606442007977097,6.46
-0.04129920890668011,0.07611043263435775,6.465
-0.038260784455376354,0.07830883405189468,6.47
-0.0375933438737038,0.06386291663617642,6.475
-0.023805392149141763,0.05426313575656746,6.48
-0.017551255992905204,0.06010360959148062,6.485
-0.02154654754894888,0.06690011577593322,6.49
-0.011203740175125416,0.0690751943417098,6.495
0.010639918245391556,0.0687374562192915,6.5
0.01136209644059335,0.05949509053970966,6.505
-0.0074553457134437645,0.04598074383143765,6.51
-0.009151982803594035,0.044203988429845825,6.515
0.0015280392973252774,0.05086826923233623,6.52
-0.008752477303375025,0.050862527103840406,6.525
-0.023058231483661287,0.04689303763888584,6.53
-0.01914068498951781,0.05028529841717254,6.535
-0.028307795944629257,0.05788027216370641,6.54
-0.05134867559465786,0.05789972779929782,6.545
-0.04446003290042428,0.04940003655602705,6.55
-0.028288190177363632,0.04388113062699262,6.555
-0.045494686417415255,0.04562671402136207,6.56
-0.05994873622891506,0.04500201539673094,6.565
-0.04667573363705509,0.04022215368245403,6.57
-0.04832614260520399,0.040098082197999235,6.575
-0.06384262068631853,0.04053688665224018,6.58
-0.05467940840050627,0.03505515570429947,6.585
-0.044689268685864404,0.035703886759588944,6.59
-0.05943519769662759,0.043983479210100124,6.595
-0.06268103304724042,0.038887761086917785,6.6
-0.043283196855332946,0.024083837871059496,6.605
-0.03623114595322088,0.02693901624041789,6.61
-0.04266626320031491,0.04094866602088244,6.615
-0.039992924910164464,0.040054860429796196,6.62
-0.03400457840085519,0.03315550020701188,6.625
-0.03614330281527378,0.036649520072694355,6.63
-0.039430320747214455,0.03613184354027289,6.635
-0.03877796338630474,0.027525677283680022,6.64
-0.04060017193717132,0.03282593389406386,6.645
-0.04768555657549543,0.04754679132085793,6.65
-0.048897392892614785,0.046572500487667944,6.655
-0.03792414902411667,0.03923168244461812,6.66
-0.03188187035245262,0.04539306882851747,6.665
-0.040460262854269916,0.05152158962945106,6.67
-0.04446003290042442,0.04940003655602706,6.675
-0.037293595837060683,0.05667527112032963,6.68
-0.034017085808946516,0.0676708110198288,6.685
-0.03068954531806968,0.061006455030899694,6.69
-0.02115834866401192,0.05107852293326459,6.695
-0.02148313637798412,0.05772658421364347,6.7
-0.026269049645072914,0.0646259423335934,6.705
-0.01152823198096725,0.06021395298713964,6.71
0.0069824224511215935,0.06023606612397066,6.715
0.00376092211099482,0.07013133886678252,6.72
-0.0024621520051319873,0.07885498321661316,6.725
0.005590518849511949,0.07868182334877809,6.73
0.010896711935903018,0.0669437810030452,6.735
0.009088184946954183,0.05370542129110743,6.74
0.014286643324131263,0.053957443304392616,6.745
0.019321618229994487,0.05801442805026501,6.75
0.009517588849535633,0.05019068216677869,6.755
-0.003875110344104646,0.040486660711134125,6.76
-0.002322881816859357,0.03708374659401614,6.765
0.006435579426277443,0.03387212499538583,6.77
0.0004356883725616475,0.036632738111573075,6.775
-0.017340068897259385,0.04556114468697266,6.78
-0.024843441133289266,0.0434204602733096,6.785
-0.025829658733068937,0.03513326512543116,6.79
-0.03737196683748591,0.03614100213249445,6.795
-0.04446003290042432,0.034580025589218924,6.8
-0.03550952029817478,0.02787707597404797,6.805
-0.040189392442786756,0.034145522447457465,6.81
-0.06244441563421096,0.04020879169597962,6.815
-0.06017083470120627,0.02730666524557669,6.82
-0.039356828876962985,0.01993015001679931,6.825
-0.04787451149503178,0.031634957960810374,6.83
-0.06931591879675349,0.03763912252067477,6.835
-0.0607075975102799,0.034048762586937634,6.84
-0.05010179018613102,0.03464593142184212,6.845
-0.06731508172542662,0.03151094987409592,6.85
-0.07347071502649805,0.024505766686877498,6.855
-0.05628572464167395,0.029238174141428108,6.86
-0.06179575342888304,0.03852580424071196,6.865
-0.08345507504812967,0.0395962565082978,6.87
-0.07188723461005818,0.03946428739912837,6.875
-0.04816602978707751,0.038359735894623874,6.88
-0.059437055601904695,0.030940824311454316,6.885
-0.07863420428392942,0.02861849226933544,6.89
-0.07024772285915838,0.037153689306852394,6.895
-0.062166684732201355,0.04414021426190999,6.9
-0.07200238317159494,0.042034838843282615,6.905
-0.07330029271264496,0.03338302159053585,6.91
-0.06692332226756158,0.027800090793474765,6.915
-0.0773151839486375,0.035677039853073515,6.92
-0.08892006580084869,0.04446003290042438,6.925
-0.07620231451092731,0.036286544066509815,6.93
-0.057752662477094915,0.02770307914584765,6.935
-0.05821099912715352,0.03375277035767816,6.94
-0.06552217888395216,0.03306498175230484,6.945
-0.06180623277123055,0.021668682227894746,6.95
-0.05173569255916803,0.02580134955381516,6.955
-0.04284854686110187,0.0405915705180409,6.96
-0.03241909656409743,0.04454886353461927,6.965
-0.022031640387924194,0.049476985828332425,6.97
-0.018129058729340466,0.06252433559639135,6.975
-0.014302598493572842,0.06384693526332995,6.98
0.0004948920708133747,0.05958613679666656,6.985
0.017131503649038694,0.07394359303361023,6.99
0.02000088492566217,0.093216337295481,6.995
0.01552777029320951,0.09372219957359856,7.0
0.01489066186589729,0.08689331971827048,7.005
0.01140183688257404,0.0847388806630408,7.01
0.0026979009124532953,0.07599127367317823,7.015
0.00025467634732843545,0.06071525869887461,7.02
0.0013705113314888707,0.05423975475222992,7.025
-0.0066210151337225305,0.05457727825429548,7.03
-0.015236919031300832,0.048107968458746354,7.035
-0.009772588313778542,0.037349181140264344,7.04
-0.0008112246298409747,0.03364682280570441,7.045
-0.0049400036556027,0.03458002558921882,7.05
-0.015860355361102352,0.02987987987103475,7.055
-0.021388230670490272,0.020789224642125854,7.06
-0.024226430881486564,0.015230879142017975,7.065
-0.02817004307672068,0.012022210387674441,7.07
-0.02994727189306413,0.009681354665468305,7.075
-0.03287174734277172,0.016454572183007676,7.08
-0.0409892425433441,0.029070070894620798,7.085
-0.04410428762193238,0.027883857866952223,7.09
-0.03702635330804626,0.013609892173503665,7.095
-0.03401937750225287,0.008996338765739614,7.1
-0.03988862635492972,0.015157023839805234,7.105
-0.04125204252783276,0.01596647090918207,7.11
-0.03861181386197612,0.014966897889768467,7.115
-0.0438892605040833,0.01948509218252597,7.12
-0.052107698014952096,0.020724694599482243,7.125
-0.05501113251856717,0.020322943137582334,7.13
-0.058351158900912144,0.027955038754524524,7.135
-0.06187798868443115,0.03286312534808521,7.14
-0.05742228108089719,0.028488656755920192,7.145
-0.050282344110653854,0.03133943309802503,7.15
-0.05033548486027328,0.04092336461406369,7.155
-0.05491144412645246,0.03846178283383504,7.16
-0.058381196262699143,0.030221388088818295,7.165
-0.059862399390918246,0.03160981833510875,7.17
-0.05928004386723249,0.034580025589218966,7.175
-0.0585830137480999,0.03334810801472445,7.18
-0.06042000016947171,0.03724629552748969,7.185
-0.06382912129461467,0.044026151202138805,7.19
-0.06569912457446521,0.04348046387267002,7.195
-0.06261775392344668,0.03764003403534075,7.2
-0.05572501717726595,0.034362007014875455,7.205
-0.05280267080391592,0.03812517855785954,7.21
-0.05462114682306538,0.045586569077066375,7.215
-0.05212147577925476,0.0439707644814671,7.22
-0.043850036172193255,0.029263665987010076,7.225
-0.03389097665601721,0.014104985776147461,7.23
-0.02116978523487631,0.008410996115785371,7.235
-0.01006699445246784,0.014339671635167986,7.24
-0.005242552223548402,0.028767156748758446,7.245
0.00424302379985821,0.03674025202039193,7.25
0.02075706253233658,0.03239867758003582,7.255
0.025722696736289557,0.03305703292140596,7.26
0.017861217751720917,0.04217862462987763,7.265
0.014918013100427596,0.04401650082432475,7.27
0.01563566670103151,0.043180985788169965,7.275
0.011858836487097704,0.04783997954145086,7.28
0.009795998834079311,0.04301228852769796,7.285
0.005661539474303832,0.030736907806557114,7.29
-0.009612988174028066,0.03378970328472863,7.295
-0.01976001462241083,0.04446003290042431,7.3
-0.011242595982157644,0.04281117311104826,7.305
-0.002955755900323972,0.03838787549559871,7.31
-0.008697252029975573,0.03950134592128296,7.315
-0.016621691526246797,0.036966458539548976,7.32
-0.02127275889826033,0.034611018180501406,7.325
-0.02802126753526055,0.038685277425955844,7.33
-0.03182278818910254,0.03872545651818035,7.335
-0.029049303302313638,0.033967562313253485,7.34
-0.031081678423138182,0.03664602921467828,7.345
-0.041346753922552215,0.04372444903399834,7.35
-0.04416982838077506,0.044277941474258474,7.355
-0.03415932618931533,0.040443148147167735,7.36
-0.028436113858472,0.04000968015980946,7.365
-0.03415874760028259,0.04416637259383673,7.37
-0.036825542397114296,0.04667149111953463,7.375
-0.03355803980155251,0.041888800451648,7.38
-0.03778861357567712,0.03518761354675938,7.385
-0.04560620651301394,0.035389589248517546,7.39
-0.04280002402478307,0.04113619161246584,7.395
-0.03831354787003352,0.04750626144127125,7.4
-0.04643768580319649,0.05298219421736091,7.405
-0.054562297759792315,0.0540862745428572,7.41
-0.046175915695459945,0.048199637743315545,7.415
-0.03303167692609728,0.040327345582102214,7.42
-0.0345800255892189,0.039520029244821696,7.425
-0.04381330422655979,0.04854365689722695,7.43
-0.04187419882142589,0.057043246901864374,7.435
-0.03476531558761392,0.05512679092062656,7.44
-0.03921467546371261,0.04857750509959247,7.445
-0.04513572269227327,0.04230631695186865,7.45
-0.040430144561780124,0.03516856140132885,7.455
-0.04321805452288798,0.039922414651097124,7.46
-0.056080561603934195,0.057165901368925076,7.465
-0.04848031951298369,0.05621441530580201,7.47
-0.025895614772475622,0.038423197127214176,7.475
-0.025395636013602573,0.040282704890726696,7.48
-0.03417699972974773,0.04711971634538106,7.485
-0.019154682019719513,0.026387287103905786,7.49
-0.0005018446902604267,0.014119851996850633,7.495
0.0009518363534677648,0.0437445680776859,7.5
0.01207428127878143,0.0816123573687332,7.505
0.04321282449473778,0.1017185852248215,7.51
0.07460986056032168,0.1051135562776059,7.515
0.11708436123949705,0.0885601328441948,7.52
0.19064651753873574,0.07486420661396076,7.525
0.273634497981099,0.06664039829698128,7.53
0.337618836038282,-0.0037918413667158294,7.535
0.3734972062891946,-0.13110867599340567,7.54
0.3599665283265729,-0.19576132280917177,7.545
0.2815802083693542,-0.17290012794609463,7.55
0.17499326559833878,-0.14237945038104846,7.555
0.09111141713030863,-0.0991462044599431,7.56
0.03549131020579886,-0.015278401510448614,7.565
-0.005043640437686512,0.04129118518461011,7.57
-0.021572754632682618,0.04213333374493493,7.575
-0.01285115696444191,0.045718459227108516,7.58
-0.006782802585626758,0.056487972943499845,7.585
-0.01747074662397091,0.046758510965933434,7.59
-0.028084594595045517,0.04181199921859602,7.595
-0.03101769183467731,0.04780306641348525,7.6
-0.03486054165566042,0.03860367035418626,7.605
-0.03642004522706653,0.03083214971053184,7.61
-0.03282740951137924,0.04038031965819024,7.615
-0.038631195250836727,0.04459105985845917,7.62
-0.05489707816913383,0.0429164742187459,7.625
-0.057083378808199886,0.044798738365535114,7.63
-0.038334538209776774,0.03684741224810781,7.635
-0.02664777867548994,0.03064412071918251,7.64
-0.039274262448722695,0.043457336325181006,7.645
-0.053802985308036025,0.0477824911404501,7.65
-0.04956632868703772,0.03649917412636854,7.655
-0.04476032590736942,0.04111549712863992,7.66
-0.0550402044079791,0.048729518907177465,7.665
-0.0599895618372505,0.03515306122946776,7.67
-0.05434004021162976,0.03458002558921901,7.675
-0.061926905402204135,0.06050402905712428,7.68
-0.07023073164457136,0.06780610169204812,7.685
-0.05235070069443924,0.051040315452055056,7.69
-0.04095401709033151,0.04827535894483133,7.695
-0.06279714797264205,0.055932931019741824,7.7
-0.07262662532188086,0.05146653387677837,7.705
-0.05445383756992777,0.0465176999766536,7.71
-0.05784682809956031,0.05007895791000617,7.715
-0.08095277977129965,0.04760106159457167,7.72
-0.07962810994387624,0.04041174408968771,7.725
-0.07460638768842497,0.04516044853964136,7.73
-0.09537179555005659,0.05697277122569895,7.735
-0.10226058159150597,0.057805591984849865,7.74
-0.07586317683085646,0.04980568275609767,7.745
-0.06194477606717993,0.04770370839298849,7.75
-0.07527012758485738,0.049856267363860965,7.755
-0.08045694543857451,0.045750463796341886,7.76
-0.06955035832208967,0.041040752211526164,7.765
-0.06376017701762816,0.046886399958996135,7.77
-0.06190039177969574,0.057210021972834584,7.775
-0.049001473670361055,0.061439963320641805,7.78
-0.03323061970971715,0.06507834856629939,7.785
-0.032191892462267356,0.07732792616089533,7.79
-0.03479786816058091,0.09034354418240981,7.795
-0.019760014622410827,0.08892006580084873,7.8
-0.001576107728647658,0.07565401029908883,7.805
-0.0024772878310191497,0.06586362233037298,7.81
-0.005584540225225222,0.06022425235519169,7.815
0.0030401319512044565,0.050607792863273764,7.82
0.003095315870481622,0.04284480949258289,7.825
-0.004929702550677779,0.040569214433408614,7.83
0.0017764541990557847,0.03309408821409205,7.835
0.01019443903070839,0.02351960989270953,7.84
0.0026516957944354522,0.023793256424484745,7.845
0.0017775190632005077,0.02316836859657324,7.85
0.015608353183633572,0.014348621521045714,7.855
0.018548640673089166,0.014999312677217193,7.86
0.011837354708740795,0.02309779726073446,7.865
0.014442099043572871,0.015796554053713097,7.87
0.01736330063414473,0.001704244954309294,7.875
0.013168963180513733,0.0014924369298703775,7.88
0.01405240890320648,0.005081577490894844,7.885
0.015578694253472964,0.0031866099528889223,7.89
0.007373359436597606,0.006601148699942676,7.895
0.003271661236864955,0.01373017898651518,7.9
0.011056547663166544,0.015092207496765497,7.905
0.014578931748009916,0.014902094910192731,7.91
0.008169723259742042,0.015289259666962702,7.915
0.0015161684832891472,0.014567395991596916,7.92
-0.00494000365560268,0.019760014622410886,7.925
-0.012630526610026512,0.028480087479848596,7.93
-0.01490822818475581,0.02821003980642635,7.935
-0.014437530684005604,0.024589630081649032,7.94
-0.02187958737868558,0.029627542371807408,7.945
-0.03213156173038301,0.035790881373765404,7.95
-0.031446150066281466,0.03504844767908703,7.955
-0.024484457090558034,0.03515749548647826,7.96
-0.025733868954515682,0.040733534521237194,7.965
-0.03283183982043094,0.04480071964653183,7.97
-0.03601028306816174,0.04148905131723574,7.975
-0.039971581145187,0.034186579530875096,7.98
-0.04991447965999517,0.03221810554480218,7.985
-0.05676616297870259,0.03815768601869646,7.99
-0.05898256352926052,0.04421235951117777,7.995
-0.06924737116091721,0.047298870813681455,8.0
-0.0834038491249699,0.050603073207058286,8.005
-0.08144512942766002,0.050253330105229845,8.01
-0.06763631849100535,0.044836158838360056,8.015
-0.0652320460582276,0.04588786195846542,8.02
-0.07288790440095266,0.05632361985849416,8.025
-0.07290849310224985,0.062077739410825665,8.03
-0.06895372088354224,0.058727249577797534,8.035
-0.06994543718467258,0.05753294768026247,8.04
-0.0643240285783232,0.06268972303810479,8.045
-0.04940003655602708,0.0691600511784379,8.05
-0.04341791009920826,0.075688137740893,8.055
-0.04401597418493633,0.08069159322641223,8.06
-0.03187774987380734,0.07956401247473142,8.065
-0.01812201160641474,0.07538338848818249,8.07
-0.02295518634459323,0.07378488718230539,8.075
-0.030244281725156714,0.07064428488325593,8.08
-0.023553637767492443,0.06487204369711501,8.085
-0.02027653272078661,0.06470775001883983,8.09
-0.027844082089263256,0.06603065521208837,8.095
-0.02873183668515806,0.05878567883734389,8.1
-0.024676593625114002,0.05448766337777651,8.105
-0.0305679086883917,0.06194951946183519,8.11
-0.035435033173392076,0.06210871880068868,8.115
-0.025549200447669083,0.05003584897609971,8.12
-0.01680904583238614,0.04693554060416656,8.125
-0.023870523856164262,0.049483089958986815,8.13
-0.03376014670986846,0.041334621056845,8.135
-0.03477031616472533,0.03759294327731909,8.14
-0.035176149792763865,0.046857922183913145,8.145
-0.03905276752725851,0.04711070668201491,8.15
-0.03789167335740241,0.03999592168912666,8.155
-0.03453867933616645,0.0457504392259167,8.16
-0.0404055404143186,0.05156441113203121,8.165
-0.047051050197277955,0.04479223926021744,8.17
-0.03952002924482164,0.04446003290042433,8.175
-0.029287938288523666,0.053044358759448566,8.18
-0.03270769903823814,0.05288927064349371,8.185
-0.03932417268624744,0.049376765526399365,8.19
-0.03715288164125026,0.050964232960877605,8.195
-0.03414434328906807,0.04726451375075335,8.2
-0.034591281562487045,0.040055137161383154,8.205
-0.033970499244798225,0.04238116128491846,8.21
-0.03506915395883074,0.05091071201751643,8.215
-0.036417221501920456,0.055047285073469544,8.22
-0.02765645993326163,0.05007438384058463,8.225
-0.014203851760330672,0.03889576439485337,8.23
-0.012116014632415458,0.03728643130660809,8.235
-0.016775146631665953,0.05641561400823603,8.24
-0.010745965014714143,0.08698770432971015,8.245
0.006997883862225412,0.113120113700317,8.25
0.0279001180692303,0.11527826468880176,8.255
0.056855418447426614,0.08575221763571984,8.26
0.10407981459677365,0.05796413193491507,8.265
0.16311687621930485,0.04471116151706433,8.27
0.21775233924702322,-0.015227905384797123,8.275
0.25663048617433637,-0.13330316024518313,8.28
0.2590519272206446,-0.20599026595024258,8.285
0.20014775654695355,-0.186884215932447,8.29
0.1003358676371388,-0.1472377136271034,8.295
0.01976001462241081,-0.10868008042325945,8.3
-0.018263232284528495,-0.03292032525134446,8.305
-0.03658309757889882,0.04270634262827014,8.31
-0.044523792172052185,0.06420876561774602,8.315
-0.03921247757670042,0.06677033317296815,8.32
-0.033357689024959225,0.08560269823563321,8.325
-0.027922432385677085,0.09487962387338844,8.33
-0.010011595755369251,0.08898205227785734,8.335
0.006692830910564888,0.08947411485161258,8.34
0.003582961874474622,0.0855214828917069,8.345
-0.0032393036186823985,0.06470827926176728,8.35
0.00028956267706729686,0.04899967520806559,8.355
-0.0006049085823446553,0.05120370846035578,8.36
-0.009198799160702825,0.05600518895292927,8.365
-0.0101363354746759,0.05452957250395275,8.37
-0.007018393174622203,0.05162373900369588,8.375
-0.013313842574071526,0.047438586484820945,8.38
-0.01996441543742449,0.04062286593330095,8.385
-0.01313705865600719,0.037532611075768656,8.39
-0.0034067474024839133,0.04036541142626652,8.395
-0.006716625731909643,0.0405726342007321,8.4
-0.016399171860934023,0.037533418934112814,8.405
-0.019893121527673027,0.04014337210335051,8.41
-0.02218994313335989,0.04222309397788633,8.415
-0.028102885102447496,0.03377522698798551,8.42
-0.029640021933616215,0.02964002193361623,8.425
-0.030041154970219072,0.04182156373313512,8.43
-0.039709723918370285,0.0523844328425101,8.435
-0.04513338187421143,0.05005549830518328,8.44
-0.032968306621446127,0.04599921213413817,8.445
-0.023837462219090118,0.04369480459561052,8.45
-0.03199306142831171,0.04323362021923292,8.455
-0.037770513576179436,0.0517900687294407,8.46
-0.03390196691502987,0.059782928602420814,8.465
-0.03651814819451631,0.053349097849307074,8.47
-0.043558667146679296,0.045721261092419405,8.475
-0.04445655793672195,0.04986821833470718,8.48
-0.04882334841963284,0.05664020040066608,8.485
-0.05956720807776836,0.06230401950988517,8.49
-0.05980145456771905,0.06889215623775763,8.495
-0.04870040814998785,0.06843581535445374,8.5
-0.04453789749602496,0.06177045585937197,8.505
-0.05229420718387092,0.0592414839562356,8.51
-0.06294638625309806,0.05944957940207986,8.515
-0.07069337822773727,0.05939072373639131,8.52
-0.07383613595022633,0.05996638264382094,8.525
-0.07492228283460617,0.055125075043502746,8.53
-0.07994311891063416,0.04919442488676096,8.535
-0.08724821546180471,0.05525225058560489,8.54
-0.08875349620857954,0.06064693157469893,8.545
-0.08398006214524599,0.04940003655602703,8.55
-0.07795895561292789,0.04077308355010792,8.555
-0.07043772599374516,0.04991506949023987,8.56
-0.06048701566890227,0.05894825333743771,8.565
-0.05262724467874814,0.05885839809282385,8.57
-0.047871697186746914,0.060206868551811274,8.575
-0.038454781803420934,0.06363898860837951,8.58
-0.020211265012185595,0.06587383910537277,8.585
-0.002222441451270276,0.07010342202546406,8.59
0.004804890696914057,0.07382903288503007,8.595
0.004901789193148803,0.07327257807220693,8.6
0.010484197139299746,0.06870304781744481,8.605
0.02132306196021081,0.057071816512830005,8.61
0.025183097627628895,0.042932740019220136,8.615
0.020134941118338634,0.03936441743031853,8.62
0.01600734583279997,0.04188336171326673,8.625
0.013626686412353983,0.03645489295200437,8.63
0.006631959747074084,0.029753413908347733,8.635
-0.001416792439070936,0.033724723113536303,8.64
-0.005985770607505057,0.0407899982238707,8.645
-0.0123435432274543,0.04071953212273594,8.65
-0.018372365999286308,0.03667060678742499,8.655
-0.013645792118503502,0.03446186425684,8.66
-0.005114113886738028,0.03446655986374942,8.665
-0.008893980766621911,0.03451656618192158,8.67
-0.019760014622410817,0.03458002558921892,8.675
-0.024011716935954518,0.0372510709539424,8.68
-0.026183186241240296,0.04075588458390669,8.685
-0.033568018808331754,0.03989937248158697,8.69
-0.039232765186441594,0.03769595767965755,8.695
-0.03925284738677225,0.041385272393904673,8.7
-0.03936278150765816,0.04822628188318613,8.705
-0.038636968733324305,0.05060921865425506,8.71
-0.03354226471964118,0.04909264533503622,8.715
-0.03235445596048663,0.04891246395596324,8.72
-0.040021422887276496,0.050087388691816934,8.725
-0.044416317518846116,0.049292691698902116,8.73
-0.04041904278288729,0.04838686024070147,8.735
-0.04134426390227743,0.051305333165023025,8.74
-0.04903532668500208,0.0542920121023544,8.745
-0.0504819656575017,0.053786296795332464,8.75
-0.050107763385152514,0.05566037825602018,8.755
-0.05787886532037509,0.059325551677586616,8.76
-0.05900780186996529,0.05501653098815949,8.765
-0.045844506791321814,0.04852290910481873,8.77
-0.041733996416899,0.05222441154685058,8.775
-0.05236536379494678,0.05594984906296145,8.78
-0.05356150617973713,0.048046014461380356,8.785
-0.045314498378066795,0.040209669962060705,8.79
-0.046719679168438985,0.03979206064560984,8.795
-0.04940003655602703,0.03952002924482159,8.8
-0.04053084984646966,0.046527600855340884,8.805
-0.030946557711647546,0.07289404627466571,8.81
-0.017916869677048985,0.1016372673427758,8.815
0.020105964298392627,0.10382671225192529,8.82
0.07787904691034667,0.08025879803840445,8.825
0.13429503833458903,0.054919508495412855,8.83
0.19332865963790255,0.029296163748956775,8.835
0.25868167549717963,-0.022051173944228213,8.84
0.2995994608729429,-0.09278941690382288,8.845
0.28630175121294943,-0.13111083915008456,8.85
0.2277254496719938,-0.11670220063101443,8.855
0.15126528225525177,-0.08458254311902033,8.86
0.08013984629055072,-0.05207969301179954,8.865
0.03614258410957663,-0.007916397148361627,8.87
0.023356345452612413,0.032562556258328115,8.875
0.015585752277886425,0.04678615187977218,8.88
-0.002020833341801362,0.04515607643827258,8.885
-0.0097802435187278,0.04029399767286425,8.89
-0.0033325897575079864,0.03291157176016373,8.895
-0.0063496129228250596,0.03264210286447891,8.9
-0.016133274033489776,0.0382340303450896,8.905
-0.01415625625238845,0.03332800984097988,8.91
-0.0148456812573061,0.024794700346846537,8.915
-0.02593054488486716,0.0273468780069529,8.92
-0.019760014622410824,0.029640021933616256,8.925
-0.0007102122476549023,0.02530798028856428,8.93
-0.0066475217227296305,0.025673023373001445,8.935
-0.028017287087326048,0.02543755796326948,8.94
-0.030148310229341155,0.01712703797247989,8.945
-0.023529152044875774,0.016290186170574813,8.95
-0.027861629646636982,0.027183191574406445,8.955
-0.03300542327353524,0.03332713779369363,8.96
-0.03516586418645116,0.03527754574934806,8.965
-0.039268355744440604,0.042308368006494665,8.97
-0.03657841360011417,0.044045178846763365,8.975
-0.029391836499242253,0.033840498496751796,8.98
-0.031589207948520215,0.027416984033330743,8.985
-0.036039787169807165,0.034499434453648656,8.99
-0.03460986323689947,0.044090469897276684,8.995
-0.03880015266920898,0.04594581435494661,9.0
-0.046741618088228805,0.04365747781974759,9.005
-0.045238459282457705,0.044002903336094246,9.01
-0.04537679182079098,0.047014063467931265,9.015
-0.05782988134173622,0.05017799640289587,9.02
-0.062345403496443116,0.05341949946131779,9.025
-0.048305804745937084,0.055498491887866076,9.03
-0.03953842265593305,0.05395850508362999,9.035
-0.048975251853487896,0.05047058125046128,9.04
-0.05845524171161147,0.04885687921468763,9.045
-0.059280043867232415,0.04940003655602706,9.05
-0.06399208932499478,0.047906775864750596,9.055
-0.07239988582969324,0.0407410860518395,9.06
-0.07411883875543152,0.03459109443558059,9.065
-0.0772294005249563,0.04074740976986741,9.07
-0.08659068311438188,0.0523586081330137,9.075
-0.08297011458650069,0.05166770803070828,9.08
-0.06653836054548119,0.042125420416209695,9.085
-0.06591312233925495,0.03988109546306258,9.09
-0.07808395979886293,0.043663801235407904,9.095
-0.07285587304691057,0.04451423021009333,9.1
-0.053167060923941745,0.044561889180065414,9.105
-0.03937857926043646,0.04936618152836947,9.11
-0.02970077247843149,0.06083393827040301,9.115
-0.02028240923482496,0.07357333523549778,9.12
-0.010684568525726643,0.07476498888676686,9.125
0.008424343779217412,0.06565197916599014,9.13
0.027969406535128496,0.06344662465143851,9.135
0.028555622445265487,0.06737109004137867,9.14
0.0249602075101044,0.061589050873611606,9.145
0.032851754167461146,0.048267372233180256,9.15
0.03168339621344513,0.03731072421105426,9.155
0.01839126965399781,0.028761168354621773,9.16
0.017245354829617195,0.026958083469821294,9.165
0.02020664027565935,0.03461501858285921,9.17
0.009880007311205401,0.03952002924482162,9.175
0.00530167109423165,0.03654411021143328,9.18
0.013708403167091827,0.033520429720414746,9.185
0.011330583529819565,0.030249944700082933,9.19
-0.0010227574224028041,0.025555991196851313,9.195
-0.005390668957464935,0.02502652885611946,9.2
-0.008232069812008665,0.025282383785282216,9.205
-0.014698458034470634,0.022761577005895487,9.21
-0.014109079013737655,0.025970672534786056,9.215
-0.01252342254900779,0.03346618548374589,9.22
-0.021604100063124156,0.0333596987667134,9.225
-0.029815926295608825,0.02954297805687559,9.23
-0.027155108157653634,0.03191989528742544,9.235
-0.023476027673726786,0.03688472051899988,9.24
-0.0245682511270393,0.03942679380034965,9.245
-0.02692317196942252,0.040202361600172494,9.25
-0.03208097971158248,0.03857927074912931,9.255
-0.0388412340513921,0.035166463303246714,9.26
-0.03857873517070993,0.0331123856907037,9.265
-0.0336931593796679,0.035973395021179425,9.27
-0.036772171512761825,0.04583555959284205,9.275
-0.044934563328861865,0.05490663512284725,9.28
-0.04365131966611367,0.05373487643637418,9.285
-0.03597924596180699,0.04952076647010805,9.29
-0.03548417821461265,0.05015199125799945,9.295
-0.03952002924482161,0.049400036556027135,9.3
-0.04182068096868139,0.048055857047018244,9.305
-0.04770111973895919,0.0504311667184358,9.31
-0.05408074336333563,0.04581743125147008,9.315
-0.05332680366162691,0.03521598612203142,9.32
-0.05673999102605067,0.03665049783478915,9.325
-0.0678470391730669,0.044098167534399546,9.33
-0.06439083564934873,0.04179675048331421,9.335
-0.046261388166862136,0.039753219442985994,9.34
-0.041558060730355915,0.041357025785086,9.345
-0.04973279676089537,0.032681120311944346,9.35
-0.04900348651441121,0.02472818110431851,9.355
-0.04030242193178389,0.03730782351634619,9.36
-0.026107149185011464,0.06249068272816602,9.365
0.002770904315322293,0.0875280800591299,9.37
0.036053336659607665,0.10225051689588302,9.375
0.06703315495879525,0.09209420822319228,9.38
0.12341921821357844,0.0716631771237266,9.385
0.21007937473351757,0.06094589722779557,9.39
0.2801297633368674,0.025989269014248022,9.395
0.30292236908225073,-0.05100844184303256,9.4
0.28510188807277265,-0.10513367593770863,9.405
0.22782744721815498,-0.10171792043480953,9.41
0.14320861013613795,-0.09283847739293498,9.415
0.07375212205485741,-0.09062964673708857,9.42
0.03458002558921898,-0.049400036556027094,9.425
0.0015726726968727618,0.011287690559571888,9.43
-0.022241125489992103,0.03358269094193507,9.435
-0.016816445905156834,0.029726716277454487,9.44
-0.005402424427656392,0.03355345566489718,9.445
-0.014065998498879694,0.032745044783302306,9.45
-0.020916050327891293,0.024829096599519856,9.455
-0.01392493167714779,0.030263240513814738,9.46
-0.016527927350161807,0.03349091840927343,9.465
-0.02502120585379707,0.016037835015535865,9.47
-0.021130283407611788,0.008572775930642556,9.475
-0.025663729476279408,0.02585905982178175,9.48
-0.043725333424499746,0.03116557987302533,9.485
-0.03507002336202677,0.01827811176551988,9.49
-0.006065903358555352,0.023563041679243155,9.495
-0.008686741151921227,0.04044996581212278,9.5
-0.03269255956257761,0.03408845065184497,9.505
-0.035808207756919425,0.020095130482234977,9.51
-0.033073950216213295,0.027087839567063173,9.515
-0.04147986941489809,0.03481146477170204,9.52
-0.038085965196658154,0.026735511923718928,9.525
-0.03157500574445716,0.027108011231678525,9.53
-0.0470278962849124,0.04107949155389673,9.535
-0.05565172252071945,0.0431906026968258,9.54
-0.037207029608812926,0.03554838823254866,9.545
-0.02964002193361619,0.03952002924482162,9.55
-0.044198314190033644,0.048559986137391216,9.555
-0.049637872620850856,0.04806198685826561,9.56
-0.04877403401281694,0.04466406210568416,9.565
-0.05702545264042174,0.04288916671818438,9.57
-0.05790048556301063,0.03768971967194902,9.575
-0.053072240944939245,0.037358449396268166,9.58
-0.06582000811575925,0.04996035677348208,9.585
-0.08020798793148437,0.05998750882607998,9.59
-0.07328220246874817,0.05391042089251053,9.595
-0.06770635406056345,0.04301675671951517,9.6
-0.07998083034936097,0.03951658237049381,9.605
-0.08909427342547799,0.04180974295257235,9.61
-0.0878849798090947,0.04802926562439624,9.615
-0.08877479977689133,0.05420090817275662,9.62
-0.08957013520083104,0.0507908666148098,9.625
-0.08950892516216981,0.041015456291864795,9.63
-0.09712650494121061,0.03877111853672748,9.635
-0.10020198143813909,0.04463354802141564,9.64
-0.08323515504889534,0.05087997928815532,9.645
-0.06281094657508417,0.05725643097841117,9.65
-0.05547056630798011,0.0626719397670105,9.655
-0.047870860466933764,0.06434478903039573,9.66
-0.031541361462503394,0.06704342766360988,9.665
-0.018095750460191296,0.07124709212051067,9.67
-0.009880007311205332,0.0691600511784378,9.675
-0.0020025372040128665,0.06247769255508932,9.68
-0.0006455534359498861,0.05669506724839795,9.685
-0.00482193062515283,0.04629357277401068,9.69
0.0003354881775287534,0.031196493698272678,9.695
0.014039430249938336,0.023622758114114146,9.7
0.020073034719773238,0.024533298065721913,9.705
0.01704640026328529,0.02315074647111338,9.71
0.014511949227010516,0.01920288492825979,9.715
0.011857787279435974,0.01915936417800457,9.72
0.005763687533210439,0.019629063179607973,9.725
-0.0003338405000583897,0.014368993282413861,9.73
-0.006047490952874223,0.009141489675908051,9.735
-0.014159257412305667,0.012955933131688737,9.74
-0.019709292610335903,0.019578981270925676,9.745
-0.015546271834561575,0.017968339345508892,9.75
-0.007179783189176702,0.013741072203191984,9.755
-0.008239782978212777,0.01455702840233764,9.76
-0.019065029032528102,0.014554938714513084,9.765
-0.025248128382259753,0.016016439953299044,9.77
-0.02429959374058314,0.026520144146861737,9.775
-0.02860718305543325,0.03064653339196959,9.78
-0.03489778220684285,0.017876506500416455,9.785
-0.0314224480145677,0.011370927787731818,9.79
-0.03152961583700408,0.0219374099035785,9.795
-0.0444600329004243,0.029640021933616263,9.8
-0.04238695788181985,0.029362674786556613,9.805
-0.019354118350067444,0.03017533124460714,9.81
-0.017439998287674223,0.02978355198950844,9.815
-0.040049911908825786,0.030734058035080086,9.82
-0.041076446547512434,0.03616917576816694,9.825
-0.025463644034973316,0.03564371469082513,9.83
-0.03330434827116815,0.03378932817909254,9.835
-0.0446305716980337,0.0409826480281374,9.84
-0.03033972273467881,0.03951660835158602,9.845
-0.02451594064810559,0.026624298450319467,9.85
-0.040275331558215305,0.03055626567532989,9.855
-0.031780491720017054,0.047881548681012055,9.86
0.002541831673357667,0.06011202613267339,9.865
0.01939648818777154,0.07779259163454648,9.87
0.029615798825282875,0.08715510144497098,9.875
0.06589221255108199,0.061045386646272605,9.88
0.11104617632368677,0.03242579945697941,9.885
0.1511075980864289,0.015728710781798643,9.89
0.20069814520270018,-0.04608519743556424,9.895
0.23410241802510764,-0.13882223484148504,9.9
0.20202013767112556,-0.17060560002800795,9.905
0.11690388877773586,-0.1443737506373005,9.91
0.03551804136162809,-0.12079030733056048,9.915
-0.01414722221004281,-0.08275968510575964,9.92
-0.039520029244821564,-0.014820010966808132,9.925
-0.052116350398148374,0.03351758692714313,9.93
-0.05308298715902618,0.049736770173333146,9.935
-0.0414131659477575,0.06273705959529957,9.94
-0.028490125256928,0.06814063927188187,9.945
-0.023742638472256335,0.062489897473453,9.95
-0.017479455831655097,0.06332865403433935,9.955
-0.007256746439189154,0.06317288445753536,9.96
-0.005192228632302314,0.051932969800120375,9.965
-0.0036371729799018326,0.042301169525439025,9.97
0.007664494843813887,0.03311664946877467,9.975
0.009379747966151068,0.018976063539374845,9.98
-0.0026701445026073856,0.013504835384384059,9.985
-0.002221569127228694,0.016110242106887895,9.99
0.00501197953075284,0.014941617572934765,9.995
-0.005720045669754029,0.014881182234057936,10.0
-0.016964604340408897,0.012924384712087773,10.005
-0.01112260362592301,0.0017629848039021608,10.01
-0.011348779361636366,0.00021958288104628645,10.015
-0.021857170373800097,0.01292030594529697,10.02
-0.018557378895046096,0.013221949467194207,10.025
-0.008454816071752417,0.0033136042345928538,10.03
-0.010667792600862811,0.005895950140613808,10.035
-0.014972310840489085,0.01094720192622753,10.04
-0.014675893548221602,0.007581236950155965,10.045
-0.019760014622410768,0.009880007311205367,10.05
-0.02528831127871904,0.015613244896198659,10.055
-0.023235543625182944,0.012886958494949769,10.06
-0.02390208005260483,0.0137816937991844,10.065
-0.03327737165312615,0.02479505052192039,10.07
-0.040955071458076524,0.029801239022716343,10.075
-0.03726688965358948,0.02556565334246922,10.08
-0.025184967983969853,0.025129603060864304,10.085
-0.02001491413028662,0.030817569022605882,10.09
-0.02978440363633063,0.034697674243901196,10.095
-0.03971863961105386,0.032738938852293814,10.1
-0.03936135396219584,0.029566796243336097,10.105
-0.03876969829935446,0.03190501181361777,10.11
-0.039238792305134,0.036905266742996566,10.115
-0.03480577382334298,0.03938550116559426,10.12
-0.0371684632187745,0.04261855937032457,10.125
-0.048395318691345085,0.044172369242600575,10.13
-0.046758414030908135,0.03654947925479537,10.135
-0.034346099952099744,0.028786090119324988,10.14
-0.03730353887333005,0.030617520992541065,10.145
-0.05172121455187294,0.031168583246072863,10.15
-0.054382935175068245,0.025640644677162493,10.155
-0.048955144391390384,0.024998766604742376,10.16
-0.051201350430717725,0.026385792673643757,10.165
-0.0579106770944524,0.021145886450197333,10.17
-0.059280043867232436,0.019760014622410706,10.175
-0.05799205538009885,0.02925098394268874,10.18
-0.061435201610734534,0.03666021631709839,10.185
-0.06455764356907351,0.03508270631583233,10.19
-0.055517357191289946,0.03130950571549489,10.195
-0.04016496323110526,0.029284213918153543,10.2
-0.03457321838183257,0.032294724952515244,10.205
-0.03318997981136416,0.04528002932134004,10.21
-0.021902593672131338,0.062037463398806184,10.215
-0.00818039259877489,0.06951939787112135,10.22
-0.001206840790287967,0.06656270209269675,10.225
0.005408744846683786,0.06430361465899315,10.23
0.010553874801453863,0.0700215413473124,10.235
0.007514215266349272,0.07648287420983232,10.24
0.004825887057118128,0.07009559586674702,10.245
0.010196529985604054,0.05110548863003009,10.25
0.01704267196935366,0.034259207398840204,10.255
0.019839100322481748,0.0258143492261537,10.26
0.016466555751162754,0.020592829348783436,10.265
0.007656589213117702,0.02062208316405079,10.27
0.004036302145819197,0.0278659719073018,10.275
0.007553199791312689,0.028975803322505465,10.28
0.0038255487043530375,0.01827368946388659,10.285
-0.0068199501980759965,0.012725931059133062,10.29
-0.011749231206236256,0.019519768940938903,10.295
-0.01482001096680812,0.024700018278013467,10.3
-0.017764206267945844,0.024329099074627353,10.305
-0.01028494378194648,0.025399749861530162,10.31
-0.0043667592412819835,0.02502804273902718,10.315
-0.016309755585759658,0.022887653912437893,10.32
-0.02543209513000928,0.026416486516705123,10.325
-0.01696565400875127,0.03002454967090334,10.33
-0.015279964241592415,0.026283782171771977,10.335
-0.02664597664081093,0.025238254617981258,10.34
-0.02737781034472833,0.03200358717657609,10.345
-0.022339116979750696,0.03736341699250539,10.35
-0.030363309216919144,0.039652304121979884,10.355
-0.035048772006591226,0.04074633461563368,10.36
-0.021061672803643874,0.03719444811397153,10.365
-0.009953472383029759,0.034503526472954224,10.37
-0.015408664797856002,0.03812131419453044,10.375
-0.02038913369658113,0.03891579132437502,10.38
-0.015874063499549586,0.03500286027936008,10.385
-0.012824773841445904,0.03475612519002922,10.39
-0.015721035806106388,0.03385095835196008,10.395
-0.01621134570073085,0.03209315500339196,10.4
-0.010004232426581187,0.0497150388819727,10.405
-0.004608273313569301,0.08907599290214209,10.41
-0.0032937269469913715,0.11504275807815942,10.415
0.011290411816342716,0.10087951692275673,10.42
0.05434004021162975,0.06916005117843776,10.425
0.11001866510700431,0.055627503452669265,10.43
0.15856461776399872,0.03536570236195692,10.435
0.20253239764349398,-0.04552558378857816,10.44
0.2277388714483257,-0.14788819428915884,10.445
0.19445005829468848,-0.17704761714875863,10.45
0.10733812092591608,-0.14872471332314702,10.455
0.02418435638472272,-0.1368034000720736,10.46
-0.027915933887228253,-0.10837457455702432,10.465
-0.06705427685093295,-0.022173576448527667,10.47
-0.0903164559928444,0.040656158988081816,10.475
-0.07725767174746617,0.03335554461425882,10.48
-0.04531006648403135,0.033156846402825534,10.485
-0.030066598362098466,0.06746362620584866,10.49
-0.029782627614333985,0.07945630579418127,10.495
-0.020613271042076976,0.07127837285651059,10.5
-0.004256165448886249,0.07803938697680879,10.505
0.0005799621629704546,0.07737572094644844,10.51
-0.0027455094227320843,0.05367829802238661,10.515
0.0020251211499413345,0.037583714771689494,10.52
0.006688390525807201,0.038813420125148816,10.525
-0.003488942693662125,0.03787811892115853,10.53
-0.009323034571398997,0.028153140223211682,10.535
0.007137117910285437,0.017283831144912127,10.54
0.017271855231845157,0.01487199328323677,10.545
2.6316397620744452e-17,0.019760014622410824,10.55
-0.01325570517523705,0.018458712112472075,10.555
-0.005097487010107552,0.012892709373746607,10.56
-0.0037920551835581135,0.014441655178915245,10.565
-0.014171361123676106,0.013909715281293525,10.57
-0.013033676618594978,0.00916526355637753,10.575
-0.011978183569262831,0.019649386367924043,10.58
-0.028157669667056393,0.0379427144654792,10.585
-0.03308248791269964,0.037957958157100714,10.59
-0.012022821320166606,0.027078461801354127,10.595
-0.0029001283951865485,0.023574415696334595,10.6
-0.02109746039064014,0.024842151368830112,10.605
-0.03232370661381955,0.029994854073796356,10.61
-0.025135170461939194,0.03876784413173833,10.615
-0.024268082279028918,0.039795110826458126,10.62
-0.03267834973654625,0.03487338390836563,10.625
-0.033999205773467336,0.03566952543972595,10.63
-0.03363332578787033,0.039091295163268126,10.635
-0.04133637267864354,0.04149083491148477,10.64
-0.04357193532363638,0.04538204004612666,10.645
-0.03288374787826604,0.04552045816269357,10.65
-0.027562004060316836,0.04262112907097689,10.655
-0.03586039008223413,0.0449693841605601,10.66
-0.04098461118236128,0.04632092405317982,10.665
-0.0362674863765703,0.041261621786241445,10.67
-0.034580025589218924,0.03952002924482159,10.675
-0.03856890504506277,0.04076685805071429,10.68
-0.03909266621761813,0.0380729880357552,10.685
-0.03900844969260662,0.03886719034646756,10.69
-0.0470914177294543,0.0444568828410816,10.695
-0.05632287304083928,0.04286684555666325,10.7
-0.0525028735909662,0.03577975785689602,10.705
-0.039187940047349705,0.03349158356854369,10.71
-0.0351351717198754,0.034825789987193774,10.715
-0.04524696424310515,0.0350453852300074,10.72
-0.052859990058720725,0.03307578348369746,10.725
-0.04899577140416416,0.029405019238590707,10.73
-0.04461989450433722,0.02616675318883508,10.735
-0.04436564725591064,0.023270999675396392,10.74
-0.03998068254941757,0.0242658559814858,10.745
-0.03271048137125068,0.03771649593010258,10.75
-0.027823451478836567,0.05486185735433405,10.755
-0.017808563792018138,0.0593849058466706,10.76
-0.00028752461128223197,0.06136884623812553,10.765
0.011822022518943157,0.07199791288407782,10.77
0.014462625339149127,0.07583105234396374,10.775
0.016506604381848377,0.06866273082697162,10.78
0.02019488664679468,0.06374027884699693,10.785
0.02328273604472914,0.055814956973763104,10.79
0.026302292903999817,0.04099740836556659,10.795
0.02470001827801344,0.03458002558921892,10.8
0.015103663800032315,0.03565579445847471,10.805
0.008134309933754481,0.033205053840946686,10.81
0.013541637081115315,0.03401436110160831,10.815
0.02284647325512262,0.037472395918463755,10.82
0.024131222842267586,0.03190910466998808,10.825
0.020435295367136102,0.025027562426094756,10.83
0.018381772736813583,0.026543389012183092,10.835
0.013323884388838908,0.03026154766480054,10.84
0.00302792548090962,0.03360766599458718,10.845
-0.0018132668875072218,0.034346593288660715,10.85
3.478074143823675e-05,0.029339689232324294,10.855
-0.005003362811935415,0.030247364464502383,10.86
-0.012783620806433697,0.038724760324602786,10.865
-0.005815626435662154,0.039687747294456344,10.87
0.005872418499345487,0.03995159960560044,10.875
0.0012027202899128648,0.0466883774420037,10.88
-0.009171609268152458,0.04176644638302889,10.885
-0.007938460214365645,0.03453459141397095,10.89
-0.004900290524845556,0.0497873538420931,10.895
-0.008790156893599617,0.061633044307267654,10.9
-0.009519224824179776,0.04788316069374324,10.905
-0.004294755107891929,0.03972365349867749,10.91
-0.0030193310049336356,0.0472434317934106,10.915
-0.00842669604078532,0.050064624709129306,10.92
-0.009880007311205391,0.05434004021162973,10.925
0.005298191705963388,0.06414002242398574,10.93
0.03055492490801319,0.07501690680165948,10.935
0.04389596332147821,0.10409955081728801,10.94
0.04939978466757595,0.1283548476012407,10.945
0.07544325134773693,0.09945302668840407,10.95
0.12159148391555916,0.061534312268938914,10.955
0.16673110323603627,0.06250289362895177,10.96
0.21080201710892668,0.02579427945156959,10.965
0.24228094841485118,-0.0794670179790576,10.97
0.22089926571382318,-0.13994279935832424,10.975
0.14804550764466456,-0.11621741146122522,10.98
0.07421122179056103,-0.09255973369852719,10.985
0.016458779511429288,-0.0807285477374043,10.99
-0.041010433955439636,-0.03354148011117454,10.995
-0.08432184091522334,0.023541269217710693,11.0
-0.09412194953179319,0.051836645827302796,11.005
-0.08935900864088364,0.06302953036937856,11.01
-0.0883174621342,0.06449540796069124,11.015
-0.08104981884697289,0.0578264603027952,11.02
-0.06716120012385893,0.06077906123986526,11.025
-0.06178010116769226,0.0714674772693524,11.03
-0.05810494465039846,0.073939885571009,11.035
-0.037497945235651996,0.07296920998777368,11.04
-0.010251795891187854,0.07691795730514991,11.045
1.052655904829778e-17,0.08398006214524589,11.05
-0.0016474998981362413,0.09172250176073066,11.055
0.003258610588913954,0.093223989617574,11.06
0.009731061742585784,0.08528984769604209,11.065
0.006986230344409642,0.07418439114393693,11.07
0.005602175253150907,0.05864253596639704,11.075
0.013084518141742637,0.0417234725114223,11.08
0.015597080176665334,0.04085391669809953,11.085
0.008480376385821713,0.05081173560391625,11.09
0.007331049660268783,0.0483251096176778,11.095
0.01475867950383889,0.03935603012587754,11.1
0.01438449254069902,0.0397286207207286,11.105
0.0039728042514280545,0.04095837586955445,11.11
-0.001298912677132386,0.038163379712421,11.115
1.86874449506686e-05,0.0393297495729703,11.12
-0.004528591625122538,0.04097028995697277,11.125
-0.012081533620977943,0.038164071981162985,11.13
-0.010786994559836699,0.03504479884006892,11.135
-0.008679000666337824,0.03309503056656271,11.14
-0.017853667979471875,0.0362163110833638,11.145
-0.025500088434332092,0.04664469917703446,11.15
-0.01831684055256514,0.05085221532054012,11.155
-0.009313337974029173,0.04335332503901748,11.16
-0.011600883111571978,0.038816640590447274,11.165
-0.018957756503680624,0.04128509571289103,11.17
-0.024700018278013516,0.044460032900424266,11.175
-0.028661878440986333,0.05069402651786392,11.18
-0.029730359335261938,0.05532596427970912,11.185
-0.029542908464583503,0.050287651278603705,11.19
-0.03158651588559065,0.04665257228941625,11.195
-0.03635954241320864,0.05086908400862624,11.2
-0.043074050817308904,0.050550510476597164,11.205
-0.045340484253151916,0.046999910606133614,11.21
-0.037683416396574784,0.05034664576692979,11.215
-0.03274089575840749,0.05147345253799372,11.22
-0.04043161506768675,0.04508878050189652,11.225
-0.044257478231240654,0.04477677087778772,11.23
-0.03664745913548844,0.052102753448566144,11.235
-0.0361917994078558,0.05429527041027145,11.24
-0.044128321266039605,0.04974462620685956,11.245
-0.044839664936417015,0.04520524609383807,11.25
-0.04629259797174335,0.04527407895599197,11.255
-0.05747431594850912,0.05247123911966338,11.26
-0.05966554417444368,0.06152427686869639,11.265
-0.04518475827822745,0.06427544098502892,11.27
-0.03466055288484417,0.06379649268945696,11.275
-0.0383616044066972,0.06630615145829852,11.28
-0.0449803453972117,0.06946926888696783,11.285
-0.04346850994989999,0.07207973529526475,11.29
-0.032395597112895545,0.07771365766595088,11.295
-0.01976001462241081,0.08398006214524593,11.3
-0.014623256378675148,0.08674831394386597,11.305
-0.015433498265486213,0.09248732414208628,11.31
-0.015193142696533607,0.10677204908804755,11.315
-0.008853296107367068,0.11682585945058375,11.32
0.004541451151902194,0.10998145082732651,11.325
0.014415520513663202,0.09952578642204761,11.33
0.01206249360454988,0.10118839608244243,11.335
0.010403062707074444,0.10324766199356936,11.34
0.01772816370157185,0.09360032461695272,11.345
0.01930504059213507,0.08250978289332743,11.35
0.014731186511827702,0.07339912696580242,11.355
0.020255071370269592,0.059609897907032944,11.36
0.025918697197037346,0.053513390016612906,11.365
0.015685556156607914,0.06351040758552232,11.37
0.008612463895385614,0.0669390767225531,11.375
0.020846602127933683,0.05332646066671528,11.38
0.03023113141782484,0.044509073002919806,11.385
0.019959711442161455,0.046079279460497675,11.39
0.00807757469239869,0.043199028120737414,11.395
0.008917513894910621,0.0421434131829463,11.4
0.008562287054434188,0.05181967322277636,11.405
-0.0012421101567941287,0.05348287373639649,11.41
-0.003413490966361425,0.04165208802967472,11.415
0.0038351732803371375,0.04417760101194869,11.42
-0.004940003655602676,0.0642200475228351,11.425
-0.02213360118306602,0.0679368684934851,11.43
-0.01016163709199048,0.051881651630480856,11.435
0.013850619145289131,0.04835275208743728,11.44
0.0032733601997893265,0.058387846230474966,11.445
-0.01972438852336304,0.05744837946587895,11.45
-0.01372992102890809,0.05316133046588605,11.455
-0.005195776001299231,0.06263419573783811,11.46
-0.017489095238003197,0.06906564726313343,11.465
-0.019385393005598186,0.06148263075031395,11.47
-0.008319000835802559,0.06065663463388196,11.475
-0.0158171622210773,0.06954259907447374,11.48
-0.025589611649040594,0.06605882675756519,11.485
-0.00792211419151571,0.053308221556373506,11.49
0.009760397015565369,0.05371830174159634,11.495
-0.002353261199234968,0.06818556003580066,11.5
-0.018713879449011914,0.08574269170021209,11.505
-0.009162447348845712,0.10507647830269191,11.51
0.014764774765292402,0.12010416816776368,11.515
0.03421595588314193,0.11491043613462465,11.52
0.060766012150148714,0.09134167422024295,11.525
0.11235333978968798,0.07161711688680324,11.53
0.17537964405576237,0.05013450021777475,11.535
0.22123655819818827,-0.012897020453844868,11.54
0.23685984602284912,-0.10697186581703809,11.545
0.21242015719091625,-0.1531401133236839,11.55
0.14274543012757446,-0.12668268183712042,11.555
0.05825919258632175,-0.09025569172560305,11.56
-5.1594860645212535e-05,-0.06405980974768867,11.565
-0.028992650201107126,-0.008833975415230719,11.57
-0.04216937063557178,0.05767060273947903,11.575
-0.041331214540118726,0.08658159408359806,11.58
-0.033782576054532595,0.09678740999083824,11.585
-0.02873748225908776,0.11755180691783264,11.59
-0.020068563263082567,0.12379239130146932,11.595
-0.0053674117972059895,0.10600331621517206,11.6
0.005348332447829613,0.09353735990934124,11.605
0.0070802500152772055,0.09118342915346109,11.61
0.0014267513326642403,0.08590648122519819,11.615
-0.004791903078422108,0.08384746286149997,11.62
-0.0027453442181335965,0.08618055729561992,11.625
8.87644530984041e-06,0.0807157041276287,11.63
-0.007876904227129139,0.07047747987132674,11.635
-0.015424911857504308,0.06728567014159614,11.64
-0.014190734606431136,0.069855033255629,11.645
-0.014245538590852038,0.0700982121362616,11.65
-0.014372292946183102,0.06625988111693108,11.655
-0.009319662968787968,0.06429805508573837,11.66
-0.011040246013443408,0.06760169191273471,11.665
-0.0191752017110821,0.06987893548161453,11.67
-0.01976001462241081,0.06916005117843786,11.675
-0.020432439309839567,0.07196290105285019,11.68
-0.02825452723418061,0.07436469049674649,11.685
-0.029978682180326895,0.06980594034018263,11.69
-0.029320576728632638,0.0687251743692731,11.695
-0.03746489660687898,0.07715661090327669,11.7
-0.0375172222124314,0.08344297005689101,11.705
-0.02357204069532372,0.08534210110831462,11.71
-0.020835915914679374,0.08984449294972607,11.715
-0.03175600978642926,0.09080346506816872,11.72
-0.03556252457059692,0.08499340215786139,11.725
-0.034665576562422695,0.08420512406982492,11.73
-0.03843643690447731,0.0887890464935234,11.735
-0.03857538282406516,0.08694241556644443,11.74
-0.03465229834929409,0.08384027842583557,11.745
-0.03855733066141961,0.09184926735567843,11.75
-0.04730830917530121,0.10098055615926853,11.755
-0.04618859948051617,0.09590363175366982,11.76
-0.0348234067023648,0.08728600911292105,11.765
-0.029770453275161,0.09069961083798811,11.77
-0.03714628685795538,0.09499861410945368,11.775
-0.040494445739838396,0.08839937732935069,11.78
-0.03376441290840827,0.0839979767454512,11.785
-0.03489298897162537,0.08571378444019835,11.79
-0.045717121377226125,0.07820418732743076,11.795
-0.04940003655602705,0.06916005117843786,11.8
-0.05059834249323625,0.07712311337070965,11.805
-0.05696181697689467,0.08594765093578736,11.81
-0.051397312606820324,0.07609729578216597,11.815
-0.03420270994568851,0.06262731475321157,11.82
-0.03057883570337163,0.058860821836351315,11.825
-0.035328631256059236,0.05884190662509823,11.83
-0.026144733473850844,0.06291304221504235,11.835
-0.013061000767828582,0.0703533541294456,11.84
-0.007854356331977641,0.07328294674112505,11.845
0.003949747019657969,0.0779063962216389,11.85
0.020472839977950293,0.08963629871696438,11.855
0.02208677468739879,0.09518216196526819,11.86
0.020704136939659317,0.09210496627245676,11.865
0.03808157989572653,0.09356101970095378,11.87
0.05362353211006797,0.09689426921921754,11.875
0.04290389714629079,0.08953148392472614,11.88
0.029712674581399177,0.07245741976535688,11.885
0.03614372785442698,0.05892506105927057,11.89
0.03797754332220905,0.061504204463156686,11.895
0.023426876030338762,0.07262885977573971,11.9
0.017929739275252952,0.07147589269936391,11.905
0.019255086541328133,0.06373558743377951,11.91
0.0058131851620247844,0.06706331483771269,11.915
0.00013343755515416795,0.0680240089564728,11.92
0.019760014622410758,0.05928004386723246,11.925
0.025777119398781637,0.06486687527800018,11.93
0.004317563536713834,0.07883986253032225,11.935
-0.005447580374095961,0.07134075727077593,11.94
0.0008940327558866228,0.05761655195845318,11.945
-0.0020654188286876817,0.062189305720152195,11.95
-0.0055935328927937044,0.06882921215635805,11.955
-0.003362991658356695,0.07080860099657194,11.96
-0.01246732654435939,0.08155405823607134,11.965
-0.021432230562911103,0.0896570610358231,11.97
-0.012411289782984287,0.0854673993091936,11.975
-0.004919339280534514,0.08411847304258993,11.98
-0.008921157829257967,0.08558101306758285,11.985
-0.009022027377980848,0.08191010147369004,11.99
-0.009527054087766957,0.08358071267584566,11.995
-0.01736366778608676,0.08933982454925682,12.0
-0.019311784744883,0.08756992996698716,12.005
-0.018703970234855538,0.08782874577007145,12.01
-0.028376876917605265,0.09409099744117991,12.015
-0.0347606395332482,0.09255685980745311,12.02
-0.027487152140469436,0.08839002457337099,12.025
-0.021750425253950666,0.0922683007687671,12.03
-0.025462026840440476,0.09353533932467507,12.035
-0.03194018784211677,0.08945070732948475,12.04
-0.037450675080549715,0.08965002875455513,12.045
-0.03952002924482168,0.08892006580084866,12.05
-0.0388658860596076,0.08409753992132954,12.055
-0.04084974912319536,0.08613968884016704,12.06
-0.044196355778166746,0.09330744718302363,12.065
-0.04513238253233093,0.0933318915207391,12.07
-0.043604622091429616,0.08671836597278731,12.075
-0.036996594018376724,0.08338763084610332,12.08
-0.027868784349623876,0.0888270555759062,12.085
-0.02452096709135662,0.09396694120228904,12.09
-0.02234781446148294,0.08483015091880056,12.095
-0.01365205252804711,0.07232959717800282,12.1
-0.0044674674303762495,0.0802690869840146,12.105
0.0035038351392688884,0.10926408114514895,12.11
0.01905721188195094,0.14951157409009078,12.115
0.047156217913625675,0.18630658816394177,12.12
0.09050893998201365,0.18696869010101919,12.125
0.14348357203011936,0.1559958159221402,12.13
0.1932145469899295,0.14333845193966163,12.135
0.24907541928798926,0.12969747417055472,12.14
0.3182455016645537,0.04664557017257303,12.145
0.35743418928567666,-0.06259461704710675,12.15
0.3287965772933401,-0.10029615229730172,12.155
0.25672588624370657,-0.08737928774347506,12.16
0.1715698207972702,-0.08379034418367137,12.165
0.08894936565958941,-0.059731787452891885,12.17
0.0444600329004243,0.00494000365560263,12.175
0.041806250072496956,0.0569884266695564,12.18
0.03216158017798363,0.07348893860033232,12.185
0.011110319081010688,0.07872814602962284,12.19
0.014962034771410473,0.07625691694450962,12.195
0.026293376260508136,0.06620698608063437,12.2
0.017531934637860336,0.06362958863340587,12.205
0.01363959702011879,0.065326627689049,12.21
0.02031251468237642,0.06412681914058106,12.215
0.010720522659435527,0.06748922162672373,12.22
0.001391917687608155,0.0687033517531508,12.225
0.016036225554661145,0.058567342036304,12.23
0.02522780738415033,0.054622473741828124,12.235
0.010951969473578401,0.06598538189131577,12.24
0.0001383449486965297,0.07402245996077071,12.245
0.0009925010191728476,0.07158765636798586,12.25
-0.0016989546416034357,0.06797295141978407,12.255
-0.00491672740651632,0.06474871945301915,12.26
-0.005211013849534517,0.06427650608546509,12.265
-0.01242440242268502,0.07142963405618177,12.27
-0.020116774263032138,0.0783575916107914,12.275
-0.01390245933631098,0.07889987842409722,12.28
-0.004346535714638041,0.07918619988732763,12.285
-0.009067657275532347,0.07961443036853699,12.29
-0.022250991285095896,0.07879166675161108,12.295
-0.029640021933616263,0.08398006214524589,12.3
-0.030177077603452916,0.09040894534252758,12.305
-0.029581546014784733,0.08529098106206491,12.31
-0.03349231826679296,0.07894544745164875,12.315
-0.04558648566114168,0.08470173600158101,12.32
-0.0565443348270426,0.08903414541129748,12.325
-0.05233506938650341,0.08456892236686239,12.33
-0.04215946762126431,0.08689731179306379,12.335
-0.046615530768053304,0.09486431235525279,12.34
-0.06070929530396974,0.09215036999576522,12.345
-0.06610098154573206,0.08464855157191238,12.35
-0.0641276825155414,0.08407017411876291,12.355
-0.0659640296804831,0.08433335405075473,12.36
-0.07314559045314485,0.08499973676828251,12.365
-0.07898328751811648,0.09322319009212543,12.37
-0.07199551414925964,0.10002385152412838,12.375
-0.050304677372323504,0.09680095977437982,12.38
-0.03160235254503391,0.09360735784677471,12.385
-0.024831797770442678,0.0977365494989864,12.39
-0.017132507872976117,0.1060884353412207,12.395
-0.004028142536449095,0.11611573258275824,12.4
0.008400726265253127,0.12013834151642991,12.405
0.021370265574429746,0.11226118860678617,12.41
0.02966870418270856,0.10421577544427209,12.415
0.02827961791957381,0.10481002778561309,12.42
0.03458002558921895,0.10374007676765679,12.425
0.053124644891292566,0.09510003406082067,12.43
0.059505677499628755,0.08384651124886564,12.435
0.05444538823300305,0.07081086088123788,12.44
0.05939976391718655,0.06046598354106183,12.445
0.06449587885774553,0.05997828550355111,12.45
0.0598262696414936,0.060437704630227,12.455
0.062154001746972116,0.05446371159739621,12.46
0.06279056202666256,0.05569884056384778,12.465
0.04254126955225991,0.06673635244287668,12.47
0.03019907880281904,0.0678663882631033,12.475
0.045638346783379656,0.05884097566109045,12.48
0.051723908037864155,0.05965939846857504,12.485
0.035449841198549006,0.06836842755042105,12.49
0.029433604014370895,0.06937741840683065,12.495
0.031303759840839065,0.06558234009332392,12.5
0.018585659999245524,0.06337716021779799,12.505
0.009449774320900895,0.059727056420511945,12.51
0.014212634450711234,0.06243120610368385,12.515
0.005757843970403361,0.07878620581489083,12.52
-0.009925600789160867,0.08978908022816509,12.525
0.0012502525944333158,0.08178401499316083,12.53
0.020946321136305596,0.07384378717015312,12.535
0.010644782835721392,0.07741046059708899,12.54
-0.01038920707043384,0.07914785634713432,12.545
-0.009880007311205398,0.07904005848964324,12.55
-0.0030248455672980865,0.0858768493267829,12.555
-0.008773685091892074,0.08879308058504572,12.56
-0.018605257414843958,0.08421738386698632,12.565
-0.028388906996686558,0.08786504896080796,12.57
-0.03581142124720143,0.09526731830802827,12.575
-0.02842749086730805,0.0909500093319645,12.58
-0.016194592569250574,0.08583822289910736,12.585
-0.022356167500985423,0.08986520558740027,12.59
-0.03676792581682829,0.09046289246672554,12.595
-0.04102615244366538,0.08698943687460998,12.6
-0.044910967173304735,0.08914927935976799,12.605
-0.052599067834227554,0.0902252589973203,12.61
-0.054799484400816834,0.08832805593168344,12.615
-0.05880771513657686,0.09338467634992328,12.62
-0.06408808583937425,0.0974717772517634,12.625
-0.05320048593397216,0.0903100820067369,12.63
-0.03980666539114648,0.08412452666933008,12.635
-0.04569307003876424,0.08488826364881763,12.64
-0.047734216235079514,0.08319852742995094,12.645
-0.030030727832966897,0.0824957784176567,12.65
-0.01941960215390425,0.0891127492531722,12.655
-0.019379521836846877,0.09413829521757759,12.66
-0.007368388007567302,0.09596304047276738,12.665
